# Version 1.00
#
freq[Hz]	Trc1_S11[dB]	Trc2_S22[dB]	Trc3_S21[dB]	
6.000000000000000E+008	-3.234060626559466E-001	-6.148842507207175E-001	-5.029202569926332E+001	
6.120000000000000E+008	-3.348399046748168E-001	-6.561625747431703E-001	-4.824681044251021E+001	
6.240000000000000E+008	-3.271335034384636E-001	-6.969231590269036E-001	-4.695164664260280E+001	
6.360000000000000E+008	-3.298240200415307E-001	-7.446295382378479E-001	-4.538415833853505E+001	
6.480000000000000E+008	-3.452110158332249E-001	-8.113995274446192E-001	-4.426363824376060E+001	
6.600000000000000E+008	-3.612934029140354E-001	-8.855599371166530E-001	-4.306164600788253E+001	
6.720000000000000E+008	-3.842991827896070E-001	-9.822808459319186E-001	-4.189127665790190E+001	
6.840000000000000E+008	-4.023623807934110E-001	-1.083330921649351E+000	-4.041678608247651E+001	
6.960000000000000E+008	-4.133621433275387E-001	-1.226315524246926E+000	-3.895518876386912E+001	
7.080000000000000E+008	-4.288846143406201E-001	-1.396584015755829E+000	-3.723930995924225E+001	
7.200000000000000E+008	-4.520232958228385E-001	-1.608435686856115E+000	-3.557513669333093E+001	
7.320000000000000E+008	-4.773216136449128E-001	-1.854832151653463E+000	-3.422753915810965E+001	
7.440000000000000E+008	-5.120087154555871E-001	-2.127629355214754E+000	-3.297740478934503E+001	
7.560000000000000E+008	-5.422818225834575E-001	-2.461320415887759E+000	-3.147662959278565E+001	
7.680000000000000E+008	-5.752129490659791E-001	-2.841811629905138E+000	-3.002234795382499E+001	
7.800000000000000E+008	-6.375503951556888E-001	-3.337303037508891E+000	-2.851488451119988E+001	
7.920000000000000E+008	-6.530204674689338E-001	-3.815049643743349E+000	-2.760072406239273E+001	
8.040000000000000E+008	-7.180942901660220E-001	-4.499148884487305E+000	-2.631709530472294E+001	
8.160000000000000E+008	-7.817595033991780E-001	-5.279133724847127E+000	-2.487841634641504E+001	
8.280000000000000E+008	-8.580311555590349E-001	-5.979596796249918E+000	-2.398737431926321E+001	
8.400000000000000E+008	-9.419847686666899E-001	-6.686222058481300E+000	-2.338513738314449E+001	
8.520000000000000E+008	-1.049168849281791E+000	-7.307783310031666E+000	-2.274607010794065E+001	
8.640000000000000E+008	-1.187953908608625E+000	-7.983385972225544E+000	-2.227011136042123E+001	
8.760000000000000E+008	-1.349534660278629E+000	-8.437434871111543E+000	-2.204055941942187E+001	
8.880000000000000E+008	-1.534644225686433E+000	-9.437656617583270E+000	-2.136895100451374E+001	
9.000000000000000E+008	-1.783792888073229E+000	-1.069788885550578E+001	-2.002628965511915E+001	
9.120000000000000E+008	-2.075233959701123E+000	-1.182861879914356E+001	-1.858564503538100E+001	
9.240000000000000E+008	-2.440484120230238E+000	-1.371644536612005E+001	-1.788620227151837E+001	
9.360000000000000E+008	-2.918827503934478E+000	-1.598757440219007E+001	-1.726355067894943E+001	
9.480000000000000E+008	-3.647661693390348E+000	-1.783743476331913E+001	-1.600472271903231E+001	
9.600000000000000E+008	-4.585283193027473E+000	-1.860341363413516E+001	-1.514869755438884E+001	
9.720000000000000E+008	-5.885923025689668E+000	-1.937044488882818E+001	-1.448072059888277E+001	
9.840000000000000E+008	-7.762206870882368E+000	-1.900633665026212E+001	-1.432498927850126E+001	
9.960000000000000E+008	-1.026611498520644E+001	-1.667343395544273E+001	-1.418070461302539E+001	
1.008000000000000E+009	-1.250630766946172E+001	-1.479934583182250E+001	-1.439703283196791E+001	
1.020000000000000E+009	-1.249914530455416E+001	-1.209838940159080E+001	-1.458309708038925E+001	
1.032000000000000E+009	-1.089862447182287E+001	-1.093455958896634E+001	-1.477853982260477E+001	
1.044000000000000E+009	-9.004608844210100E+000	-1.007075080322158E+001	-1.522153119699314E+001	
1.056000000000000E+009	-7.284049646654196E+000	-9.125363736397517E+000	-1.557562239388196E+001	
1.068000000000000E+009	-6.020138167344197E+000	-8.302822432910173E+000	-1.579368880811031E+001	
1.080000000000000E+009	-4.925168206800129E+000	-7.387812012968917E+000	-1.697732546417520E+001	
1.092000000000000E+009	-4.213355514287251E+000	-6.617843691656671E+000	-1.806740813439709E+001	
1.104000000000000E+009	-3.638704424791434E+000	-6.010742481214268E+000	-1.883940835183724E+001	
1.116000000000000E+009	-3.304345259757179E+000	-5.381882589547320E+000	-1.947471900239839E+001	
1.128000000000000E+009	-2.979185096162631E+000	-5.014213690016781E+000	-2.015295249734379E+001	
1.140000000000000E+009	-2.734842919415619E+000	-4.633170593062783E+000	-2.113058230582207E+001	
1.152000000000000E+009	-2.524092890642093E+000	-4.356454066737143E+000	-2.157539836351966E+001	
1.164000000000000E+009	-2.285617575684946E+000	-4.228662260965051E+000	-2.173687202648110E+001	
1.176000000000000E+009	-2.131848428970609E+000	-4.012760213317391E+000	-2.183068025028187E+001	
1.188000000000000E+009	-2.032508583451995E+000	-3.895628711100668E+000	-2.212461813246031E+001	
1.200000000000000E+009	-1.935436839118147E+000	-3.673374155473398E+000	-2.263762370445506E+001	
1.212000000000000E+009	-1.867882607349642E+000	-3.498529120957775E+000	-2.311801039566447E+001	
1.224000000000000E+009	-1.838202979989958E+000	-3.250333001444015E+000	-2.409237114368102E+001	
1.236000000000000E+009	-1.787597096068908E+000	-3.009153824362105E+000	-2.453905119563473E+001	
1.248000000000000E+009	-1.747078284115559E+000	-2.768978210673435E+000	-2.576061278910600E+001	
1.260000000000000E+009	-1.659173152366663E+000	-2.567464174511129E+000	-2.662434056143756E+001	
1.272000000000000E+009	-1.625300731387656E+000	-2.369470901211764E+000	-2.737668116365687E+001	
1.284000000000000E+009	-1.610747893098764E+000	-2.276329022729731E+000	-2.754561680613693E+001	
1.296000000000000E+009	-1.602322146376576E+000	-2.248790184309496E+000	-2.754391531579083E+001	
1.308000000000000E+009	-1.627921359990439E+000	-2.249100182418348E+000	-2.716319246292084E+001	
1.320000000000000E+009	-1.613519372846528E+000	-2.220749215390017E+000	-2.655277443799764E+001	
1.332000000000000E+009	-1.603637537020463E+000	-2.225522754226028E+000	-2.633012312009170E+001	
1.344000000000000E+009	-1.583620839581837E+000	-2.181489290955636E+000	-2.627525814157135E+001	
1.356000000000000E+009	-1.554673492678700E+000	-2.122297013972298E+000	-2.666779308205190E+001	
1.368000000000000E+009	-1.533341940839682E+000	-2.041246344457118E+000	-2.732617549725339E+001	
1.380000000000000E+009	-1.503421971936697E+000	-1.971007094634229E+000	-2.737177135569986E+001	
1.392000000000000E+009	-1.521649147003464E+000	-1.931938011146172E+000	-2.686984146140473E+001	
1.404000000000000E+009	-1.557688195134211E+000	-1.959998269245171E+000	-2.660382422599046E+001	
1.416000000000000E+009	-1.592155479509293E+000	-2.013470410473045E+000	-2.616209085709974E+001	
1.428000000000000E+009	-1.583412874677771E+000	-2.045982517340863E+000	-2.597206032802958E+001	
1.440000000000000E+009	-1.597023545407243E+000	-2.071590618161509E+000	-2.574700742979224E+001	
1.452000000000000E+009	-1.630403077987251E+000	-2.068425443809896E+000	-2.558196039948732E+001	
1.464000000000000E+009	-1.687086104029327E+000	-2.049694591454214E+000	-2.570430857594064E+001	
1.476000000000000E+009	-1.714799843147312E+000	-2.045970811106923E+000	-2.545200793598925E+001	
1.488000000000000E+009	-1.743852397211701E+000	-2.030522172064983E+000	-2.540857933822237E+001	
1.500000000000000E+009	-1.752995869236888E+000	-2.001844816675666E+000	-2.539048471228109E+001	
1.512000000000000E+009	-1.728499315534624E+000	-1.953000897467746E+000	-2.548381835548495E+001	
1.524000000000000E+009	-1.750498882014224E+000	-1.941941671544490E+000	-2.505643929367865E+001	
1.536000000000000E+009	-1.775963902369394E+000	-1.957272285029305E+000	-2.476024492461577E+001	
1.548000000000000E+009	-1.832437823787067E+000	-1.979462795329572E+000	-2.445952580289572E+001	
1.560000000000000E+009	-1.896854578781080E+000	-1.992131653503759E+000	-2.436084397595015E+001	
1.572000000000000E+009	-1.953269399002960E+000	-2.005791389807034E+000	-2.417153130778041E+001	
1.584000000000000E+009	-1.974741776715227E+000	-2.050852570215199E+000	-2.389980903641984E+001	
1.596000000000000E+009	-2.027275135910490E+000	-2.070369525300547E+000	-2.366862502736338E+001	
1.608000000000000E+009	-2.096405969231447E+000	-2.100719967980096E+000	-2.339723645613029E+001	
1.620000000000000E+009	-2.149240065419288E+000	-2.158920456681544E+000	-2.327260719648825E+001	
1.632000000000000E+009	-2.185269778096779E+000	-2.212364709542942E+000	-2.294590477317472E+001	
1.644000000000000E+009	-2.244294314454037E+000	-2.290269633430266E+000	-2.234124200314201E+001	
1.656000000000000E+009	-2.310386346122515E+000	-2.406148892507752E+000	-2.179988689207734E+001	
1.668000000000000E+009	-2.406974547038839E+000	-2.506783594980422E+000	-2.137202657838533E+001	
1.680000000000000E+009	-2.491111779949391E+000	-2.605129867838676E+000	-2.094215242987648E+001	
1.692000000000000E+009	-2.517094667704521E+000	-2.696542922300606E+000	-2.086051771084524E+001	
1.704000000000000E+009	-2.540153294121104E+000	-2.765841087806722E+000	-2.088479435432352E+001	
1.716000000000000E+009	-2.604665780975927E+000	-2.861872656891023E+000	-2.079405742644813E+001	
1.728000000000000E+009	-2.702594150499643E+000	-2.911864228873919E+000	-2.089046609271397E+001	
1.740000000000000E+009	-2.855185183966179E+000	-2.995454457751717E+000	-2.073877194965854E+001	
1.752000000000000E+009	-2.994888317733258E+000	-3.160243315836768E+000	-2.010113662927676E+001	
1.764000000000000E+009	-3.157006051052514E+000	-3.274001039696883E+000	-1.964473354983010E+001	
1.776000000000000E+009	-3.370251400803778E+000	-3.392369009808934E+000	-1.938119487091531E+001	
1.788000000000000E+009	-3.647192593508511E+000	-3.495536832500962E+000	-1.904190916340336E+001	
1.800000000000000E+009	-3.950409490794017E+000	-3.640509296025895E+000	-1.872325358244545E+001	
1.812000000000000E+009	-4.341776249546221E+000	-3.785927752869906E+000	-1.812946801405330E+001	
1.824000000000000E+009	-4.922628885479115E+000	-3.980760529380127E+000	-1.774552873334556E+001	
1.836000000000000E+009	-5.474443694857166E+000	-4.165217037586515E+000	-1.757411381842331E+001	
1.848000000000000E+009	-5.556949378036212E+000	-4.306169932205034E+000	-1.747713413489032E+001	
1.860000000000000E+009	-5.066074080801585E+000	-4.479091662709924E+000	-1.747101456272173E+001	
1.872000000000000E+009	-3.890510933146117E+000	-4.771710537495554E+000	-1.808699819350004E+001	
1.884000000000000E+009	-2.570522320660652E+000	-5.339374408790748E+000	-1.958524311294863E+001	
1.896000000000000E+009	-1.546096568098006E+000	-6.176389446216910E+000	-2.240314705786263E+001	
1.908000000000000E+009	-9.639935610218275E-001	-7.196511037516457E+000	-2.656607855499248E+001	
1.920000000000000E+009	-7.337423803561717E-001	-8.308934411693528E+000	-3.543696250761402E+001	
1.932000000000000E+009	-7.112591476310888E-001	-9.255118977713552E+000	-4.069097172918436E+001	
1.944000000000000E+009	-7.781429106242049E-001	-1.004778377898813E+001	-3.055068073480874E+001	
1.956000000000000E+009	-9.037342128108843E-001	-1.050378716608907E+001	-2.681538968106407E+001	
1.968000000000000E+009	-1.064057109008084E+000	-1.090992207609056E+001	-2.440471694030574E+001	
1.980000000000000E+009	-1.221417059340854E+000	-1.101188793959273E+001	-2.297030295778505E+001	
1.992000000000000E+009	-1.418067788356704E+000	-1.092195874972869E+001	-2.203597514611366E+001	
2.004000000000000E+009	-1.652707511383643E+000	-1.093553565753953E+001	-2.127090545336757E+001	
2.016000000000000E+009	-1.979655233191123E+000	-1.096019121213075E+001	-2.030686291156062E+001	
2.028000000000000E+009	-2.368855032720544E+000	-1.081500322198165E+001	-1.953640799504451E+001	
2.040000000000000E+009	-2.796391632968125E+000	-1.000820649336626E+001	-1.883383653102892E+001	
2.052000000000000E+009	-3.267371589743447E+000	-9.055501914927501E+000	-1.812551023081544E+001	
2.064000000000000E+009	-3.841579810358875E+000	-8.284732489717911E+000	-1.757437759763404E+001	
2.076000000000000E+009	-4.445626530950946E+000	-7.640476435447881E+000	-1.727177109823500E+001	
2.088000000000000E+009	-5.082172545306159E+000	-6.947866703394184E+000	-1.718038443077671E+001	
2.100000000000000E+009	-5.669499219220792E+000	-6.639593048249282E+000	-1.768344648141314E+001	
2.112000000000000E+009	-6.165129134092823E+000	-6.803760139426421E+000	-1.842412629411712E+001	
2.124000000000000E+009	-6.479186471913352E+000	-7.265704768251497E+000	-1.823486915664275E+001	
2.136000000000000E+009	-6.436056767477955E+000	-7.481337738866520E+000	-1.714378479013675E+001	
2.148000000000000E+009	-6.256631863785988E+000	-7.317284185569629E+000	-1.621089536533450E+001	
2.160000000000000E+009	-6.083320191191385E+000	-7.005932216004780E+000	-1.600050962308064E+001	
2.172000000000000E+009	-5.925441528784117E+000	-6.690360375112393E+000	-1.599946935051129E+001	
2.184000000000000E+009	-5.901275327570790E+000	-6.483985194349148E+000	-1.609780687510926E+001	
2.196000000000000E+009	-5.878385297233969E+000	-6.435865609083363E+000	-1.616654119426475E+001	
2.208000000000000E+009	-5.855309046556010E+000	-6.580804895545243E+000	-1.635485677702233E+001	
2.220000000000000E+009	-5.847929987250548E+000	-6.681697706157629E+000	-1.674550568373811E+001	
2.232000000000000E+009	-5.957433871283991E+000	-6.725834677647367E+000	-1.703939481019913E+001	
2.244000000000000E+009	-6.099012726759884E+000	-6.870748944345377E+000	-1.723007417637556E+001	
2.256000000000000E+009	-6.135336664451737E+000	-7.255656614579503E+000	-1.748647884962587E+001	
2.268000000000000E+009	-6.182101838342983E+000	-7.532421413680408E+000	-1.765878618331822E+001	
2.280000000000000E+009	-6.297782991964334E+000	-7.928256461069828E+000	-1.744748685787423E+001	
2.292000000000000E+009	-6.388173067365655E+000	-8.458420225633685E+000	-1.702639911151069E+001	
2.304000000000000E+009	-6.450567498677152E+000	-8.908619176044381E+000	-1.689437667572795E+001	
2.316000000000000E+009	-6.585408189790443E+000	-9.383408619339987E+000	-1.678858596964273E+001	
2.328000000000000E+009	-6.586265885507539E+000	-9.803732910224433E+000	-1.680870869880595E+001	
2.340000000000000E+009	-6.528192995960857E+000	-1.012440105285684E+001	-1.640320747335482E+001	
2.352000000000000E+009	-6.372522346105224E+000	-1.033688045153048E+001	-1.609471492691727E+001	
2.364000000000000E+009	-6.215190859776709E+000	-1.029628631279597E+001	-1.607921317505685E+001	
2.376000000000000E+009	-6.007586611568899E+000	-1.045264476417285E+001	-1.616704335429429E+001	
2.388000000000000E+009	-5.828632970101494E+000	-1.039942859314988E+001	-1.615650194674356E+001	
2.400000000000000E+009	-5.641450983744964E+000	-1.011847435451863E+001	-1.621596393812255E+001	
2.412000000000000E+009	-5.333520883348778E+000	-9.767447945243035E+000	-1.635203958361203E+001	
2.424000000000000E+009	-5.022953747434342E+000	-9.382208662847063E+000	-1.662245534393115E+001	
2.436000000000000E+009	-4.790438914520965E+000	-8.874655731978502E+000	-1.679629045810424E+001	
2.448000000000000E+009	-4.568070198862111E+000	-8.429827714613342E+000	-1.695528853155422E+001	
2.460000000000000E+009	-4.347261005950991E+000	-7.967670795153402E+000	-1.709044962673139E+001	
2.472000000000000E+009	-4.105367797018488E+000	-7.639732638017311E+000	-1.739390556160844E+001	
2.484000000000000E+009	-3.892179840071674E+000	-7.169883165688232E+000	-1.795158481434969E+001	
2.496000000000000E+009	-3.651434770652024E+000	-6.690901407168410E+000	-1.830676155775273E+001	
2.508000000000000E+009	-3.404800013771482E+000	-6.217415779703115E+000	-1.868881766010486E+001	
2.520000000000000E+009	-3.129779707946371E+000	-5.783187048308579E+000	-1.925102431998124E+001	
2.532000000000000E+009	-2.859734866560764E+000	-5.398065399421857E+000	-1.974425447677028E+001	
2.544000000000000E+009	-2.600383826664059E+000	-4.985502041498896E+000	-2.043705133153859E+001	
2.556000000000000E+009	-2.371850645059340E+000	-4.551860362652713E+000	-2.142665535560679E+001	
2.568000000000000E+009	-2.126658180338004E+000	-4.091405801525371E+000	-2.278830395769326E+001	
2.580000000000000E+009	-1.892120763752776E+000	-3.642385058274358E+000	-2.453776048468231E+001	
2.592000000000000E+009	-1.658920392104383E+000	-3.190743239565530E+000	-2.696235202965696E+001	
2.604000000000000E+009	-1.443205067518157E+000	-2.743412871694449E+000	-3.102190283548784E+001	
2.616000000000000E+009	-1.581046433938316E+000	-2.324728358845960E+000	-3.650442935586401E+001	
2.628000000000000E+009	-3.379839254836734E+000	-2.001411496127674E+000	-3.327005551316039E+001	
2.640000000000000E+009	-1.164097170117637E+001	-1.829223737436049E+000	-3.466673679894284E+001	
2.652000000000000E+009	-1.221622852175890E+001	-1.873956904984221E+000	-3.177398369589761E+001	
2.664000000000000E+009	-6.809104871233306E+000	-2.332439700847900E+000	-2.401870335516628E+001	
2.676000000000000E+009	-4.838029540061870E+000	-3.589187408024836E+000	-2.010976352685554E+001	
2.688000000000000E+009	-3.895749923901235E+000	-6.193642434624262E+000	-1.798378190137115E+001	
2.700000000000000E+009	-3.372451862806873E+000	-1.099034446264891E+001	-1.702167156064466E+001	
2.712000000000000E+009	-3.072464390733726E+000	-2.082176672044998E+001	-1.708796958159826E+001	
2.724000000000000E+009	-2.868351590528196E+000	-1.856512985582401E+001	-1.772795391978475E+001	
2.736000000000000E+009	-2.657211093384497E+000	-1.238416361609830E+001	-1.855742254244143E+001	
2.748000000000000E+009	-2.504110305846201E+000	-9.547889530734912E+000	-1.912711935446405E+001	
2.760000000000000E+009	-2.376651144826626E+000	-7.889691501789764E+000	-1.984597934974114E+001	
2.772000000000000E+009	-2.278993444666424E+000	-6.880580652442645E+000	-2.050411315550268E+001	
2.784000000000000E+009	-2.181509697144342E+000	-6.109778073006556E+000	-2.110675039417329E+001	
2.796000000000000E+009	-2.091784085551109E+000	-5.486047836038887E+000	-2.167521870899074E+001	
2.808000000000000E+009	-2.024937709240405E+000	-4.967421273766401E+000	-2.223950085005611E+001	
2.820000000000000E+009	-1.958637421088957E+000	-4.585075175978679E+000	-2.298418135368001E+001	
2.832000000000000E+009	-1.881259337265140E+000	-4.257845794971077E+000	-2.359881816224526E+001	
2.844000000000000E+009	-1.794095008599351E+000	-3.967025664590023E+000	-2.396260246774845E+001	
2.856000000000000E+009	-1.706876167787317E+000	-3.724623352646223E+000	-2.444047284678130E+001	
2.868000000000000E+009	-1.648866809593228E+000	-3.534316141673887E+000	-2.496460220231664E+001	
2.880000000000000E+009	-1.585417525098293E+000	-3.342857383244144E+000	-2.552582676055657E+001	
2.892000000000000E+009	-1.525442522548476E+000	-3.180405416600369E+000	-2.613035060848349E+001	
2.904000000000000E+009	-1.458974266683982E+000	-3.010650609486433E+000	-2.663870788304199E+001	
2.916000000000000E+009	-1.407456941121672E+000	-2.864927648247887E+000	-2.715574516200981E+001	
2.928000000000000E+009	-1.369113345982405E+000	-2.724938370451052E+000	-2.768677507332750E+001	
2.940000000000000E+009	-1.334241061819360E+000	-2.581700578782545E+000	-2.819574215219111E+001	
2.952000000000000E+009	-1.280213137153133E+000	-2.482308146209426E+000	-2.870870320590417E+001	
2.964000000000000E+009	-1.255302728993795E+000	-2.396345976951025E+000	-2.913288993469241E+001	
2.976000000000000E+009	-1.257439008178857E+000	-2.316310323156789E+000	-2.958081125842247E+001	
2.988000000000000E+009	-1.269185080124677E+000	-2.253689528529567E+000	-2.996846564501603E+001	
3.000000000000000E+009	-1.269601004269196E+000	-2.179826442300041E+000	-3.038214808780796E+001	
