# Version 1.00
#
freq[Hz]	Trc1_S21[dB]	Ch1_SG_S11_S11[dB]	Ch1_SG_S12_S12[dB]	Ch1_SG_S21_S21[dB]	Ch1_SG_S22_S22[dB]	RX_S22[dB]	TX_S11[dB]	ISO_S21[dB]	
6.000000000000000E+008	-5.586297046142957E+001	-4.631724496583424E-001	-5.590087297552132E+001	-5.586297046142957E+001	-2.224821539694414E-001	-2.224821539694414E-001	-4.631724496583424E-001	-5.586297046142957E+001	
6.120000000000000E+008	-5.441524884038574E+001	-4.812383204410107E-001	-5.439650859271828E+001	-5.441524884038574E+001	-2.421547008516860E-001	-2.421547008516860E-001	-4.812383204410107E-001	-5.441524884038574E+001	
6.240000000000000E+008	-5.334337785605342E+001	-4.942373174714423E-001	-5.276908659195556E+001	-5.334337785605342E+001	-2.498186989276618E-001	-2.498186989276618E-001	-4.942373174714423E-001	-5.334337785605342E+001	
6.360000000000000E+008	-5.111104418639612E+001	-5.227012422420659E-001	-5.128495657683649E+001	-5.111104418639612E+001	-2.448182304879851E-001	-2.448182304879851E-001	-5.227012422420659E-001	-5.111104418639612E+001	
6.480000000000000E+008	-4.979593272197847E+001	-5.719970982093017E-001	-4.979285471478682E+001	-4.979593272197847E+001	-2.683106927015301E-001	-2.683106927015301E-001	-5.719970982093017E-001	-4.979593272197847E+001	
6.600000000000000E+008	-4.841540344267068E+001	-6.024023295881323E-001	-4.844127334000915E+001	-4.841540344267068E+001	-2.792459404927168E-001	-2.792459404927168E-001	-6.024023295881323E-001	-4.841540344267068E+001	
6.720000000000000E+008	-4.668100685686198E+001	-6.583985365702429E-001	-4.671974253109912E+001	-4.668100685686198E+001	-2.993108376273470E-001	-2.993108376273470E-001	-6.583985365702429E-001	-4.668100685686198E+001	
6.840000000000000E+008	-4.507010491409972E+001	-7.236963345122652E-001	-4.502503877994677E+001	-4.507010491409972E+001	-3.104630687365753E-001	-3.104630687365753E-001	-7.236963345122652E-001	-4.507010491409972E+001	
6.960000000000000E+008	-4.345431441209717E+001	-7.939192167772379E-001	-4.347565684544357E+001	-4.345431441209717E+001	-3.202365356999782E-001	-3.202365356999782E-001	-7.939192167772379E-001	-4.345431441209717E+001	
7.080000000000000E+008	-4.161270008206454E+001	-9.023291281321452E-001	-4.167674398858375E+001	-4.161270008206454E+001	-3.489313587322771E-001	-3.489313587322771E-001	-9.023291281321452E-001	-4.161270008206454E+001	
7.200000000000000E+008	-4.003560888811986E+001	-1.013759452500563E+000	-4.006205330664920E+001	-4.003560888811986E+001	-3.559893166176969E-001	-3.559893166176969E-001	-1.013759452500563E+000	-4.003560888811986E+001	
7.320000000000000E+008	-3.822909357501045E+001	-1.158967459833425E+000	-3.821641908389443E+001	-3.822909357501045E+001	-3.776102842913029E-001	-3.776102842913029E-001	-1.158967459833425E+000	-3.822909357501045E+001	
7.440000000000000E+008	-3.613131360897152E+001	-1.373421792378302E+000	-3.615816296258925E+001	-3.613131360897152E+001	-4.122626590613586E-001	-4.122626590613586E-001	-1.373421792378302E+000	-3.613131360897152E+001	
7.560000000000000E+008	-3.378499774587057E+001	-1.673962050231956E+000	-3.378874232373846E+001	-3.378499774587057E+001	-4.379285120341268E-001	-4.379285120341268E-001	-1.673962050231956E+000	-3.378499774587057E+001	
7.680000000000000E+008	-3.175368683421138E+001	-2.035413261878092E+000	-3.174741665749038E+001	-3.175368683421138E+001	-4.750163518761865E-001	-4.750163518761865E-001	-2.035413261878092E+000	-3.175368683421138E+001	
7.800000000000000E+008	-2.939745384991873E+001	-2.630067076146734E+000	-2.943860517082755E+001	-2.939745384991873E+001	-5.377776555822481E-001	-5.377776555822481E-001	-2.630067076146734E+000	-2.939745384991873E+001	
7.920000000000000E+008	-2.774842959442911E+001	-3.260040507796993E+000	-2.774318055699695E+001	-2.774842959442911E+001	-5.907300190227438E-001	-5.907300190227438E-001	-3.260040507796993E+000	-2.774842959442911E+001	
8.040000000000000E+008	-2.663576836459756E+001	-3.797104271935518E+000	-2.666098422022785E+001	-2.663576836459756E+001	-6.611199337612445E-001	-6.611199337612445E-001	-3.797104271935518E+000	-2.663576836459756E+001	
8.160000000000000E+008	-2.595910600959817E+001	-4.219873134798121E+000	-2.597031119729004E+001	-2.595910600959817E+001	-7.305067873626714E-001	-7.305067873626714E-001	-4.219873134798121E+000	-2.595910600959817E+001	
8.280000000000000E+008	-2.514105749575213E+001	-4.731907007580781E+000	-2.514856543727386E+001	-2.514105749575213E+001	-8.129490359900923E-001	-8.129490359900923E-001	-4.731907007580781E+000	-2.514105749575213E+001	
8.400000000000000E+008	-2.435227403500874E+001	-5.442352795040849E+000	-2.437311573822917E+001	-2.435227403500874E+001	-9.416873302899935E-001	-9.416873302899935E-001	-5.442352795040849E+000	-2.435227403500874E+001	
8.520000000000000E+008	-2.324715827005895E+001	-6.565056344259142E+000	-2.325719940172604E+001	-2.324715827005895E+001	-1.088246746317681E+000	-1.088246746317681E+000	-6.565056344259142E+000	-2.324715827005895E+001	
8.640000000000000E+008	-2.181406129759893E+001	-7.880501703354224E+000	-2.183101098096577E+001	-2.181406129759893E+001	-1.289349197962297E+000	-1.289349197962297E+000	-7.880501703354224E+000	-2.181406129759893E+001	
8.760000000000000E+008	-2.048452432016535E+001	-8.687887329561756E+000	-2.049932668313909E+001	-2.048452432016535E+001	-1.562464063775773E+000	-1.562464063775773E+000	-8.687887329561756E+000	-2.048452432016535E+001	
8.880000000000000E+008	-1.937370833770504E+001	-9.547614981412744E+000	-1.939506278957229E+001	-1.937370833770504E+001	-1.894423948507617E+000	-1.894423948507617E+000	-9.547614981412744E+000	-1.937370833770504E+001	
9.000000000000000E+008	-1.827307004076909E+001	-9.790304872724894E+000	-1.832502667441612E+001	-1.827307004076909E+001	-2.399280996059078E+000	-2.399280996059078E+000	-9.790304872724894E+000	-1.827307004076909E+001	
9.120000000000000E+008	-1.735891526954320E+001	-9.986492278268480E+000	-1.738199409183766E+001	-1.735891526954320E+001	-3.135405368605650E+000	-3.135405368605650E+000	-9.986492278268480E+000	-1.735891526954320E+001	
9.240000000000000E+008	-1.623096010790957E+001	-9.693606750488696E+000	-1.624019067913563E+001	-1.623096010790957E+001	-4.329793089520885E+000	-4.329793089520885E+000	-9.693606750488696E+000	-1.623096010790957E+001	
9.360000000000000E+008	-1.535020652045862E+001	-9.147866574134239E+000	-1.536309704598907E+001	-1.535020652045862E+001	-6.280249870967891E+000	-6.280249870967891E+000	-9.147866574134239E+000	-1.535020652045862E+001	
9.480000000000000E+008	-1.478061570990941E+001	-8.230877234415331E+000	-1.478903091634800E+001	-1.478061570990941E+001	-9.291360496263319E+000	-9.291360496263319E+000	-8.230877234415331E+000	-1.478061570990941E+001	
9.600000000000000E+008	-1.439707617225550E+001	-7.495913121013213E+000	-1.440795842466878E+001	-1.439707617225550E+001	-1.362224113558290E+001	-1.362224113558290E+001	-7.495913121013213E+000	-1.439707617225550E+001	
9.720000000000000E+008	-1.441842241726252E+001	-6.555122756566144E+000	-1.442665429872717E+001	-1.441842241726252E+001	-1.409843338353021E+001	-1.409843338353021E+001	-6.555122756566144E+000	-1.441842241726252E+001	
9.840000000000000E+008	-1.484884310963699E+001	-5.716717906735860E+000	-1.485327075846374E+001	-1.484884310963699E+001	-1.047395679104510E+001	-1.047395679104510E+001	-5.716717906735860E+000	-1.484884310963699E+001	
9.960000000000000E+008	-1.539983812864611E+001	-5.095230703223593E+000	-1.540757130710428E+001	-1.539983812864611E+001	-7.421630265862357E+000	-7.421630265862357E+000	-5.095230703223593E+000	-1.539983812864611E+001	
1.008000000000000E+009	-1.617142383892456E+001	-4.747434649771358E+000	-1.618303988236609E+001	-1.617142383892456E+001	-5.699167969042353E+000	-5.699167969042353E+000	-4.747434649771358E+000	-1.617142383892456E+001	
1.020000000000000E+009	-1.750228388318840E+001	-4.339397725565497E+000	-1.750508085889022E+001	-1.750228388318840E+001	-4.406539910426202E+000	-4.406539910426202E+000	-4.339397725565497E+000	-1.750228388318840E+001	
1.032000000000000E+009	-1.874312392727210E+001	-3.999787597528655E+000	-1.875156059279787E+001	-1.874312392727210E+001	-3.483435932445966E+000	-3.483435932445966E+000	-3.999787597528655E+000	-1.874312392727210E+001	
1.044000000000000E+009	-1.992634468543234E+001	-3.534718592723275E+000	-1.993805872589586E+001	-1.992634468543234E+001	-2.910778820983957E+000	-2.910778820983957E+000	-3.534718592723275E+000	-1.992634468543234E+001	
1.056000000000000E+009	-2.132756859118668E+001	-3.094588360827514E+000	-2.133538748663404E+001	-2.132756859118668E+001	-2.502586810245707E+000	-2.502586810245707E+000	-3.094588360827514E+000	-2.132756859118668E+001	
1.068000000000000E+009	-2.219089062579422E+001	-2.882666692398077E+000	-2.220330888867577E+001	-2.219089062579422E+001	-2.198985841412874E+000	-2.198985841412874E+000	-2.882666692398077E+000	-2.219089062579422E+001	
1.080000000000000E+009	-2.328382344733946E+001	-2.720314798473092E+000	-2.330041746531754E+001	-2.328382344733946E+001	-1.975680550553983E+000	-1.975680550553983E+000	-2.720314798473092E+000	-2.328382344733946E+001	
1.092000000000000E+009	-2.424823454095508E+001	-2.524191443920438E+000	-2.427725967537616E+001	-2.424823454095508E+001	-1.771323750574468E+000	-1.771323750574468E+000	-2.524191443920438E+000	-2.424823454095508E+001	
1.104000000000000E+009	-2.511363215074153E+001	-2.366647547803776E+000	-2.513221049213646E+001	-2.511363215074153E+001	-1.629731011197024E+000	-1.629731011197024E+000	-2.366647547803776E+000	-2.511363215074153E+001	
1.116000000000000E+009	-2.559362901911286E+001	-2.197345042709102E+000	-2.561387816179618E+001	-2.559362901911286E+001	-1.525993277235047E+000	-1.525993277235047E+000	-2.197345042709102E+000	-2.559362901911286E+001	
1.128000000000000E+009	-2.556126950349921E+001	-2.115808695503270E+000	-2.552875107425274E+001	-2.556126950349921E+001	-1.493535519579230E+000	-1.493535519579230E+000	-2.115808695503270E+000	-2.556126950349921E+001	
1.140000000000000E+009	-2.589515640357663E+001	-2.074415675833234E+000	-2.586801682723515E+001	-2.589515640357663E+001	-1.420252215907427E+000	-1.420252215907427E+000	-2.074415675833234E+000	-2.589515640357663E+001	
1.152000000000000E+009	-2.610178921989347E+001	-2.021857665773776E+000	-2.612723935166644E+001	-2.610178921989347E+001	-1.358460206578762E+000	-1.358460206578762E+000	-2.021857665773776E+000	-2.610178921989347E+001	
1.164000000000000E+009	-2.627406015656987E+001	-1.974952185901255E+000	-2.630759088634552E+001	-2.627406015656987E+001	-1.348459210250347E+000	-1.348459210250347E+000	-1.974952185901255E+000	-2.627406015656987E+001	
1.176000000000000E+009	-2.660452096929493E+001	-1.930703467484386E+000	-2.660656770327971E+001	-2.660452096929493E+001	-1.310215443451478E+000	-1.310215443451478E+000	-1.930703467484386E+000	-2.660452096929493E+001	
1.188000000000000E+009	-2.705187546045660E+001	-1.877839356031397E+000	-2.706702703317940E+001	-2.705187546045660E+001	-1.306353559715544E+000	-1.306353559715544E+000	-1.877839356031397E+000	-2.705187546045660E+001	
1.200000000000000E+009	-2.735238446048663E+001	-1.807365302075785E+000	-2.738490774076269E+001	-2.735238446048663E+001	-1.311106708585436E+000	-1.311106708585436E+000	-1.807365302075785E+000	-2.735238446048663E+001	
1.212000000000000E+009	-2.765531700971488E+001	-1.756678733446292E+000	-2.769495701951571E+001	-2.765531700971488E+001	-1.288416760840029E+000	-1.288416760840029E+000	-1.756678733446292E+000	-2.765531700971488E+001	
1.224000000000000E+009	-2.823300694552100E+001	-1.711184096482983E+000	-2.823616269645995E+001	-2.823300694552100E+001	-1.299589415710872E+000	-1.299589415710872E+000	-1.711184096482983E+000	-2.823300694552100E+001	
1.236000000000000E+009	-2.872630065472405E+001	-1.664269762847477E+000	-2.872415638765475E+001	-2.872630065472405E+001	-1.295734297352818E+000	-1.295734297352818E+000	-1.664269762847477E+000	-2.872630065472405E+001	
1.248000000000000E+009	-2.869227998086105E+001	-1.640649638885373E+000	-2.870460988586489E+001	-2.869227998086105E+001	-1.292468018825992E+000	-1.292468018825992E+000	-1.640649638885373E+000	-2.869227998086105E+001	
1.260000000000000E+009	-2.919583758625947E+001	-1.636633687365495E+000	-2.919816892288128E+001	-2.919583758625947E+001	-1.275336425386965E+000	-1.275336425386965E+000	-1.636633687365495E+000	-2.919583758625947E+001	
1.272000000000000E+009	-2.884815922218437E+001	-1.657655781457186E+000	-2.886717420005816E+001	-2.884815922218437E+001	-1.315758872910901E+000	-1.315758872910901E+000	-1.657655781457186E+000	-2.884815922218437E+001	
1.284000000000000E+009	-2.899781263295873E+001	-1.677777290842723E+000	-2.899491752431045E+001	-2.899781263295873E+001	-1.334153181251291E+000	-1.334153181251291E+000	-1.677777290842723E+000	-2.899781263295873E+001	
1.296000000000000E+009	-2.873737225433831E+001	-1.685542748119944E+000	-2.875655869590329E+001	-2.873737225433831E+001	-1.375857048480018E+000	-1.375857048480018E+000	-1.685542748119944E+000	-2.873737225433831E+001	
1.308000000000000E+009	-2.818206686977947E+001	-1.687438750382701E+000	-2.819602496218396E+001	-2.818206686977947E+001	-1.428277262612542E+000	-1.428277262612542E+000	-1.687438750382701E+000	-2.818206686977947E+001	
1.320000000000000E+009	-2.776516242699663E+001	-1.698051361789170E+000	-2.775927958369998E+001	-2.776516242699663E+001	-1.489362999587658E+000	-1.489362999587658E+000	-1.698051361789170E+000	-2.776516242699663E+001	
1.332000000000000E+009	-2.819290468807454E+001	-1.681777869717434E+000	-2.821106484805144E+001	-2.819290468807454E+001	-1.518393498155479E+000	-1.518393498155479E+000	-1.681777869717434E+000	-2.819290468807454E+001	
1.344000000000000E+009	-2.839771525426999E+001	-1.685189700540451E+000	-2.841757183608832E+001	-2.839771525426999E+001	-1.537759778991453E+000	-1.537759778991453E+000	-1.685189700540451E+000	-2.839771525426999E+001	
1.356000000000000E+009	-2.804271622962520E+001	-1.696131564423926E+000	-2.805580570462655E+001	-2.804271622962520E+001	-1.586890876237301E+000	-1.586890876237301E+000	-1.696131564423926E+000	-2.804271622962520E+001	
1.368000000000000E+009	-2.795399637754072E+001	-1.719133292980313E+000	-2.795718843148206E+001	-2.795399637754072E+001	-1.615803998135091E+000	-1.615803998135091E+000	-1.719133292980313E+000	-2.795399637754072E+001	
1.380000000000000E+009	-2.795377776506005E+001	-1.735627145633893E+000	-2.796643301713262E+001	-2.795377776506005E+001	-1.653554192984367E+000	-1.653554192984367E+000	-1.735627145633893E+000	-2.795377776506005E+001	
1.392000000000000E+009	-2.809800784886400E+001	-1.743654626797353E+000	-2.808895338655974E+001	-2.809800784886400E+001	-1.679772592907326E+000	-1.679772592907326E+000	-1.743654626797353E+000	-2.809800784886400E+001	
1.404000000000000E+009	-2.774543844863235E+001	-1.753208803328207E+000	-2.776722120629812E+001	-2.774543844863235E+001	-1.759303672653641E+000	-1.759303672653641E+000	-1.753208803328207E+000	-2.774543844863235E+001	
1.416000000000000E+009	-2.728576210434564E+001	-1.772515249265289E+000	-2.730661366030956E+001	-2.728576210434564E+001	-1.832876565690368E+000	-1.832876565690368E+000	-1.772515249265289E+000	-2.728576210434564E+001	
1.428000000000000E+009	-2.693999634942120E+001	-1.821518742969003E+000	-2.694308090494137E+001	-2.693999634942120E+001	-1.898803188955656E+000	-1.898803188955656E+000	-1.821518742969003E+000	-2.693999634942120E+001	
1.440000000000000E+009	-2.608471821387591E+001	-1.884176605805246E+000	-2.610339733660005E+001	-2.608471821387591E+001	-1.978757082626026E+000	-1.978757082626026E+000	-1.884176605805246E+000	-2.608471821387591E+001	
1.452000000000000E+009	-2.537021996120787E+001	-1.949436316295656E+000	-2.538345948843849E+001	-2.537021996120787E+001	-2.051879348065109E+000	-2.051879348065109E+000	-1.949436316295656E+000	-2.537021996120787E+001	
1.464000000000000E+009	-2.477865538851937E+001	-2.004833390234286E+000	-2.479071555773104E+001	-2.477865538851937E+001	-2.149730939837516E+000	-2.149730939837516E+000	-2.004833390234286E+000	-2.477865538851937E+001	
1.476000000000000E+009	-2.463526085964720E+001	-2.064498300495423E+000	-2.464026951729990E+001	-2.463526085964720E+001	-2.249152788508711E+000	-2.249152788508711E+000	-2.064498300495423E+000	-2.463526085964720E+001	
1.488000000000000E+009	-2.442884550802980E+001	-2.099980473480655E+000	-2.443634955608916E+001	-2.442884550802980E+001	-2.316583250167764E+000	-2.316583250167764E+000	-2.099980473480655E+000	-2.442884550802980E+001	
1.500000000000000E+009	-2.385303684510324E+001	-2.196726650955013E+000	-2.386986254582165E+001	-2.385303684510324E+001	-2.387367210453958E+000	-2.387367210453958E+000	-2.196726650955013E+000	-2.385303684510324E+001	
1.512000000000000E+009	-2.360576822425264E+001	-2.275291519835735E+000	-2.361381169746847E+001	-2.360576822425264E+001	-2.494147927869792E+000	-2.494147927869792E+000	-2.275291519835735E+000	-2.360576822425264E+001	
1.524000000000000E+009	-2.324706785956307E+001	-2.381004362655266E+000	-2.326608363234864E+001	-2.324706785956307E+001	-2.596867061854039E+000	-2.596867061854039E+000	-2.381004362655266E+000	-2.324706785956307E+001	
1.536000000000000E+009	-2.278908086952551E+001	-2.456664788051727E+000	-2.279657070906409E+001	-2.278908086952551E+001	-2.671066389795966E+000	-2.671066389795966E+000	-2.456664788051727E+000	-2.278908086952551E+001	
1.548000000000000E+009	-2.251317508827767E+001	-2.557116837511040E+000	-2.251747643986380E+001	-2.251317508827767E+001	-2.752872591131411E+000	-2.752872591131411E+000	-2.557116837511040E+000	-2.251317508827767E+001	
1.560000000000000E+009	-2.204110691623276E+001	-2.662441832340374E+000	-2.205235503377234E+001	-2.204110691623276E+001	-2.899165422161872E+000	-2.899165422161872E+000	-2.662441832340374E+000	-2.204110691623276E+001	
1.572000000000000E+009	-2.151518980762734E+001	-2.793044303115575E+000	-2.152802457339639E+001	-2.151518980762734E+001	-3.003986080802787E+000	-3.003986080802787E+000	-2.793044303115575E+000	-2.151518980762734E+001	
1.584000000000000E+009	-2.116655846586546E+001	-2.908744467741498E+000	-2.116632401308799E+001	-2.116655846586546E+001	-3.088861945743898E+000	-3.088861945743898E+000	-2.908744467741498E+000	-2.116655846586546E+001	
1.596000000000000E+009	-2.060017936743628E+001	-3.028559405628155E+000	-2.060586777031304E+001	-2.060017936743628E+001	-3.214943322328534E+000	-3.214943322328534E+000	-3.028559405628155E+000	-2.060017936743628E+001	
1.608000000000000E+009	-2.036777294460594E+001	-3.154429495491422E+000	-2.036781802089547E+001	-2.036777294460594E+001	-3.306145926354236E+000	-3.306145926354236E+000	-3.154429495491422E+000	-2.036777294460594E+001	
1.620000000000000E+009	-2.008825529446266E+001	-3.317729401831382E+000	-2.011665314782338E+001	-2.008825529446266E+001	-3.481159386724449E+000	-3.481159386724449E+000	-3.317729401831382E+000	-2.008825529446266E+001	
1.632000000000000E+009	-1.978186057371913E+001	-3.492410720435918E+000	-1.979338295919286E+001	-1.978186057371913E+001	-3.684482293328920E+000	-3.684482293328920E+000	-3.492410720435918E+000	-1.978186057371913E+001	
1.644000000000000E+009	-1.972266540910612E+001	-3.583117251755974E+000	-1.973573062829697E+001	-1.972266540910612E+001	-3.772706007186280E+000	-3.772706007186280E+000	-3.583117251755974E+000	-1.972266540910612E+001	
1.656000000000000E+009	-1.934146755899327E+001	-3.760572035632763E+000	-1.933721553330828E+001	-1.934146755899327E+001	-3.841664427416687E+000	-3.841664427416687E+000	-3.760572035632763E+000	-1.934146755899327E+001	
1.668000000000000E+009	-1.868995594252447E+001	-4.000300801031442E+000	-1.868800240969729E+001	-1.868995594252447E+001	-3.969233295448639E+000	-3.969233295448639E+000	-4.000300801031442E+000	-1.868995594252447E+001	
1.680000000000000E+009	-1.819881908663247E+001	-4.200866856641659E+000	-1.819096730746882E+001	-1.819881908663247E+001	-4.127517044135280E+000	-4.127517044135280E+000	-4.200866856641659E+000	-1.819881908663247E+001	
