# Version 1.00
#
freq[Hz]	Trc1_S11[dB]	Trc2_S22[dB]	Trc3_S21[dB]	
6.000000000000000E+008	-5.637205934516452E-001	-2.225091058440905E-001	-5.716841007333721E+001	
6.120000000000000E+008	-5.891987504215792E-001	-2.319401580826534E-001	-5.450608884093070E+001	
6.240000000000000E+008	-6.358934001689065E-001	-2.401791475805601E-001	-5.261481517922483E+001	
6.360000000000000E+008	-6.718739038653318E-001	-2.416178373408731E-001	-5.075449158801595E+001	
6.480000000000000E+008	-7.289430433213070E-001	-2.471018902293821E-001	-4.898155150814659E+001	
6.600000000000000E+008	-8.268024853846187E-001	-2.387264789693665E-001	-4.749896541805047E+001	
6.720000000000000E+008	-9.315200110954114E-001	-2.550924136731791E-001	-4.569558748086705E+001	
6.840000000000000E+008	-1.054684353128408E+000	-2.683357019357793E-001	-4.411872411179789E+001	
6.960000000000000E+008	-1.197060319912824E+000	-2.860039053506316E-001	-4.233596735689712E+001	
7.080000000000000E+008	-1.393123709874043E+000	-3.062817608026377E-001	-4.079079015829538E+001	
7.200000000000000E+008	-1.586805161297024E+000	-3.163312964483612E-001	-3.943977625662208E+001	
7.320000000000000E+008	-1.811127606690507E+000	-3.301079759232210E-001	-3.788712151031474E+001	
7.440000000000000E+008	-2.129253045690920E+000	-3.437979598856025E-001	-3.643805963270577E+001	
7.560000000000000E+008	-2.563416865651046E+000	-3.660341322362137E-001	-3.443483916289947E+001	
7.680000000000000E+008	-3.067462497841931E+000	-3.672280525129016E-001	-3.279636720471823E+001	
7.800000000000000E+008	-3.772430482373796E+000	-4.439794555877467E-001	-3.132605171845346E+001	
7.920000000000000E+008	-4.578592578028673E+000	-4.398814476689931E-001	-2.993634368623929E+001	
8.040000000000000E+008	-5.548200961533252E+000	-5.015128436503917E-001	-2.865503936347378E+001	
8.160000000000000E+008	-6.738355147317748E+000	-5.527846850548251E-001	-2.721940867577857E+001	
8.280000000000000E+008	-7.558987901031283E+000	-6.028537046598873E-001	-2.589001231331335E+001	
8.400000000000000E+008	-8.877192758089210E+000	-6.852408602590462E-001	-2.497087150089979E+001	
8.520000000000000E+008	-9.785169535558662E+000	-7.928066090247009E-001	-2.377492228732264E+001	
8.640000000000000E+008	-1.069990237039335E+001	-9.469246196221667E-001	-2.265126725898389E+001	
8.760000000000000E+008	-1.103559212786701E+001	-1.154319501980069E+000	-2.140703486908995E+001	
8.880000000000000E+008	-1.039197947247574E+001	-1.422789598480437E+000	-2.020641395474681E+001	
9.000000000000000E+008	-1.031060090934863E+001	-1.822273022592567E+000	-1.927081499896899E+001	
9.120000000000000E+008	-1.003435788292068E+001	-2.313214596984255E+000	-1.809977773872128E+001	
9.240000000000000E+008	-9.863395709649844E+000	-3.102582355652116E+000	-1.686215028094479E+001	
9.360000000000000E+008	-9.247026695724744E+000	-4.343296829750309E+000	-1.590084407777286E+001	
9.480000000000000E+008	-8.157258680721244E+000	-6.495999457067645E+000	-1.545107435249732E+001	
9.600000000000000E+008	-6.881068881976320E+000	-9.929385856674863E+000	-1.564677876288084E+001	
9.720000000000000E+008	-5.914422804416256E+000	-1.744393909077251E+001	-1.588772456714819E+001	
9.840000000000000E+008	-5.120932932457662E+000	-1.717796904375122E+001	-1.649598252620817E+001	
9.960000000000000E+008	-4.652186541501940E+000	-1.019228575611822E+001	-1.726641049786339E+001	
1.008000000000000E+009	-4.321711821513376E+000	-6.811492526620266E+000	-1.839173325168512E+001	
1.020000000000000E+009	-4.135713222633247E+000	-4.866136500462008E+000	-1.917632605986167E+001	
1.032000000000000E+009	-3.892500061943664E+000	-3.723053954041245E+000	-2.038855816159886E+001	
1.044000000000000E+009	-3.653826353330536E+000	-2.908593407642632E+000	-2.155010582006793E+001	
1.056000000000000E+009	-3.467784757161468E+000	-2.334645365484438E+000	-2.288751697137940E+001	
1.068000000000000E+009	-3.260941076570420E+000	-1.997243042247807E+000	-2.405495249458652E+001	
1.080000000000000E+009	-3.067636395211344E+000	-1.738528265104166E+000	-2.512768288518850E+001	
1.092000000000000E+009	-2.917770844917964E+000	-1.544468400587086E+000	-2.629596487625986E+001	
1.104000000000000E+009	-2.737441820308076E+000	-1.396148769392043E+000	-2.727386446685312E+001	
1.116000000000000E+009	-2.508671741278671E+000	-1.287889748470143E+000	-2.836055740337492E+001	
1.128000000000000E+009	-2.310346407663933E+000	-1.206015713522457E+000	-2.924002040105606E+001	
1.140000000000000E+009	-2.228180198540067E+000	-1.148382849600160E+000	-2.952281788901437E+001	
1.152000000000000E+009	-2.110999269602942E+000	-1.096404639457391E+000	-3.023591116376297E+001	
1.164000000000000E+009	-2.017946847768999E+000	-1.072742123179997E+000	-3.042827309979640E+001	
1.176000000000000E+009	-1.958323028081097E+000	-9.899906620822042E-001	-3.063832750958537E+001	
1.188000000000000E+009	-1.914948385043237E+000	-9.622898392419204E-001	-3.069048346250016E+001	
1.200000000000000E+009	-1.846258754644947E+000	-9.646889687816026E-001	-3.016293702817222E+001	
1.212000000000000E+009	-1.768154160176541E+000	-9.437699128615579E-001	-3.019297157866834E+001	
1.224000000000000E+009	-1.697322233400643E+000	-9.248300378598755E-001	-3.041857433063208E+001	
1.236000000000000E+009	-1.648131004878910E+000	-8.922279370369503E-001	-3.040538883439958E+001	
1.248000000000000E+009	-1.639230768346412E+000	-8.823150786291791E-001	-3.058183621447431E+001	
1.260000000000000E+009	-1.628062601924863E+000	-8.830898065505601E-001	-3.088515980929049E+001	
1.272000000000000E+009	-1.622726234630899E+000	-8.846836803886060E-001	-3.086379311733384E+001	
1.284000000000000E+009	-1.633407889340463E+000	-8.907893792000411E-001	-3.065687888159873E+001	
1.296000000000000E+009	-1.628427988173149E+000	-8.854147634999361E-001	-3.070687178835492E+001	
1.308000000000000E+009	-1.602421932405707E+000	-9.234260039572099E-001	-3.071384245330423E+001	
1.320000000000000E+009	-1.573053950291177E+000	-9.545529271021424E-001	-3.084963537749189E+001	
1.332000000000000E+009	-1.555219558080705E+000	-9.875615488917556E-001	-3.074641119752227E+001	
1.344000000000000E+009	-1.582244495957625E+000	-1.003922448056516E+000	-3.043417323572156E+001	
1.356000000000000E+009	-1.574529458133557E+000	-1.031385171975014E+000	-3.043240268176435E+001	
1.368000000000000E+009	-1.557897539185544E+000	-1.010441517620109E+000	-3.057439612139687E+001	
1.380000000000000E+009	-1.560767097082028E+000	-1.011130261945174E+000	-3.043834022040955E+001	
1.392000000000000E+009	-1.570072133763816E+000	-1.018858774576011E+000	-3.057082739584150E+001	
1.404000000000000E+009	-1.567603336732496E+000	-1.053649287581699E+000	-3.062537916819560E+001	
1.416000000000000E+009	-1.553355213254785E+000	-1.083348408545532E+000	-3.064928059975903E+001	
1.428000000000000E+009	-1.539182616336513E+000	-1.124771442173993E+000	-3.037359491663459E+001	
1.440000000000000E+009	-1.542380322537864E+000	-1.151730691936767E+000	-3.012889515529751E+001	
1.452000000000000E+009	-1.574380719679944E+000	-1.153222735238225E+000	-3.010385801429465E+001	
1.464000000000000E+009	-1.598362280745615E+000	-1.180339367454171E+000	-2.977861421671559E+001	
1.476000000000000E+009	-1.627404048044253E+000	-1.206575605573238E+000	-2.952347557207479E+001	
1.488000000000000E+009	-1.650126857614507E+000	-1.242924939137068E+000	-2.906279157845464E+001	
1.500000000000000E+009	-1.692729729850441E+000	-1.289421005101667E+000	-2.845340064162547E+001	
1.512000000000000E+009	-1.745080439654852E+000	-1.362274110724694E+000	-2.790727583013626E+001	
1.524000000000000E+009	-1.813804834410213E+000	-1.425119861402273E+000	-2.747138886594934E+001	
1.536000000000000E+009	-1.875506271780212E+000	-1.501390561637680E+000	-2.670909379483656E+001	
1.548000000000000E+009	-1.932182127293725E+000	-1.568334551570586E+000	-2.620264170244104E+001	
1.560000000000000E+009	-1.966605154425075E+000	-1.622289558429775E+000	-2.573631995007327E+001	
1.572000000000000E+009	-2.007843603336903E+000	-1.698178627231469E+000	-2.537992545711368E+001	
1.584000000000000E+009	-2.038143856584715E+000	-1.785387366741797E+000	-2.516118075183288E+001	
1.596000000000000E+009	-2.064621991622812E+000	-1.857601699183587E+000	-2.513146750423586E+001	
1.608000000000000E+009	-2.153237553037264E+000	-1.908650570865756E+000	-2.477835634541260E+001	
1.620000000000000E+009	-2.295432230687032E+000	-2.070808395940295E+000	-2.468317715394788E+001	
1.632000000000000E+009	-2.401576760293716E+000	-2.162546991035309E+000	-2.436877384841213E+001	
1.644000000000000E+009	-2.355341853109450E+000	-2.157681754431865E+000	-2.408319897718461E+001	
1.656000000000000E+009	-2.347220646369800E+000	-2.195217209269650E+000	-2.387464465011917E+001	
1.668000000000000E+009	-2.369335945751257E+000	-2.278532022131132E+000	-2.354844565393831E+001	
1.680000000000000E+009	-2.404801461653309E+000	-2.376285538214499E+000	-2.336978443079345E+001	
1.692000000000000E+009	-2.466511083470085E+000	-2.554622136676584E+000	-2.300590860298707E+001	
1.704000000000000E+009	-2.538388991955102E+000	-2.700917648429665E+000	-2.286039673245496E+001	
1.716000000000000E+009	-2.612866691949859E+000	-2.899608772299814E+000	-2.230620576833019E+001	
1.728000000000000E+009	-2.681020415207161E+000	-3.054359368519826E+000	-2.190341642058796E+001	
1.740000000000000E+009	-2.753409489653135E+000	-3.199926610990895E+000	-2.168620811991986E+001	
1.752000000000000E+009	-2.853550021817440E+000	-3.401477137555735E+000	-2.125686126754667E+001	
1.764000000000000E+009	-2.933378963791590E+000	-3.628257258730069E+000	-2.078258485597554E+001	
1.776000000000000E+009	-3.021039352627732E+000	-3.931145232706384E+000	-2.035799165839078E+001	
1.788000000000000E+009	-3.183221970105849E+000	-4.190106277650469E+000	-1.979247755526728E+001	
1.800000000000000E+009	-3.370480669754912E+000	-4.356978436959538E+000	-1.935667064300736E+001	
1.812000000000000E+009	-3.589039377672157E+000	-4.498132427532142E+000	-1.900814222049461E+001	
1.824000000000000E+009	-3.811375216281566E+000	-4.505789670383895E+000	-1.867303093286271E+001	
1.836000000000000E+009	-4.096318966127289E+000	-4.369634063449153E+000	-1.830405836844744E+001	
1.848000000000000E+009	-4.453921407762339E+000	-4.071410550900548E+000	-1.803424516312711E+001	
1.860000000000000E+009	-4.906526026960949E+000	-3.699462308513442E+000	-1.799552584393267E+001	
1.872000000000000E+009	-5.543937529706348E+000	-3.221768079921055E+000	-1.826462508792850E+001	
1.884000000000000E+009	-6.376538659412365E+000	-2.676087276777907E+000	-1.883811400669890E+001	
1.896000000000000E+009	-7.314613155644856E+000	-2.134179830262461E+000	-1.978687676357316E+001	
1.908000000000000E+009	-8.179449783468275E+000	-1.657412457967596E+000	-2.132720397970329E+001	
1.920000000000000E+009	-8.842319480864632E+000	-1.281081694596704E+000	-2.341380492948580E+001	
1.932000000000000E+009	-8.915962989025392E+000	-9.972629443961536E-001	-2.639261832957327E+001	
1.944000000000000E+009	-8.503241846646153E+000	-8.404436663622189E-001	-3.121389226834695E+001	
1.956000000000000E+009	-7.802730448939645E+000	-8.410270461657433E-001	-3.515844531977137E+001	
1.968000000000000E+009	-6.978969833308947E+000	-1.066480854847813E+000	-2.888742606834412E+001	
1.980000000000000E+009	-6.287572936823853E+000	-1.591076437310627E+000	-2.393326632483251E+001	
1.992000000000000E+009	-5.759159032924756E+000	-2.674045024961983E+000	-2.086618640598001E+001	
2.004000000000000E+009	-5.423766038552441E+000	-4.689032350056952E+000	-1.902157755534865E+001	
2.016000000000000E+009	-5.150742022555995E+000	-7.774090872798849E+000	-1.823359015957611E+001	
2.028000000000000E+009	-4.924700388187668E+000	-1.043549474266766E+001	-1.832031113211961E+001	
2.040000000000000E+009	-4.649234165350773E+000	-9.060710224537921E+000	-1.907500979722735E+001	
2.052000000000000E+009	-4.360075418566769E+000	-6.723287185296426E+000	-2.033955334470089E+001	
2.064000000000000E+009	-4.268872807881594E+000	-5.237728049712237E+000	-2.230924194138682E+001	
2.076000000000000E+009	-4.461480900354492E+000	-4.203204432388375E+000	-2.529876158089828E+001	
2.088000000000000E+009	-5.282750369588925E+000	-3.464228071817283E+000	-2.583973895812899E+001	
2.100000000000000E+009	-6.793537397157856E+000	-3.019962373702789E+000	-2.236553573745852E+001	
2.112000000000000E+009	-7.641699723687675E+000	-2.763285113830981E+000	-2.010445647473715E+001	
2.124000000000000E+009	-7.257821405755626E+000	-2.643027514436478E+000	-1.900234033706456E+001	
2.136000000000000E+009	-6.411016487415207E+000	-2.577568058300032E+000	-1.863586302723556E+001	
2.148000000000000E+009	-5.636657036834240E+000	-2.572310819172881E+000	-1.866268500291433E+001	
2.160000000000000E+009	-5.155347554203417E+000	-2.583925385956770E+000	-1.882157304724401E+001	
2.172000000000000E+009	-4.865729312549741E+000	-2.544725545083631E+000	-1.906237749789267E+001	
2.184000000000000E+009	-4.662646941121355E+000	-2.494547382953115E+000	-1.944747275849438E+001	
2.196000000000000E+009	-4.550753928402488E+000	-2.451878844142068E+000	-1.959354566238777E+001	
2.208000000000000E+009	-4.465338335668889E+000	-2.414375689908463E+000	-1.976633909253578E+001	
2.220000000000000E+009	-4.430493882831622E+000	-2.356576815232171E+000	-2.011579247504217E+001	
2.232000000000000E+009	-4.450587882792519E+000	-2.292343705708201E+000	-2.032983607170784E+001	
2.244000000000000E+009	-4.478933231725416E+000	-2.218748553952398E+000	-2.048630835399909E+001	
2.256000000000000E+009	-4.594531837048137E+000	-2.136670409876079E+000	-2.073584388048587E+001	
2.268000000000000E+009	-4.753385076170538E+000	-2.049231423991043E+000	-2.094947038325840E+001	
2.280000000000000E+009	-4.810281811002577E+000	-1.970334630308797E+000	-2.102687825949960E+001	
2.292000000000000E+009	-4.812896957239502E+000	-1.873967449085521E+000	-2.120530913299442E+001	
2.304000000000000E+009	-4.792586122871738E+000	-1.782641109336923E+000	-2.153060785630744E+001	
2.316000000000000E+009	-4.790371725864583E+000	-1.725924454462818E+000	-2.189931091000983E+001	
2.328000000000000E+009	-4.824774285614409E+000	-1.693216444470267E+000	-2.212509597779182E+001	
2.340000000000000E+009	-4.826812570881669E+000	-1.665138394064591E+000	-2.252999041162362E+001	
2.352000000000000E+009	-4.916870041101626E+000	-1.613392245106541E+000	-2.293141562044007E+001	
2.364000000000000E+009	-4.965425326575933E+000	-1.524393544321601E+000	-2.329985247006422E+001	
2.376000000000000E+009	-4.949370202180847E+000	-1.432476977302202E+000	-2.361628064781663E+001	
2.388000000000000E+009	-4.883485017454892E+000	-1.368406721539678E+000	-2.391182889036757E+001	
2.400000000000000E+009	-4.805850573439962E+000	-1.319957702764277E+000	-2.410981594971928E+001	
2.412000000000000E+009	-4.729911160267084E+000	-1.287316365676328E+000	-2.429061134073090E+001	
2.424000000000000E+009	-4.652306754052415E+000	-1.238139202383049E+000	-2.469972338205267E+001	
2.436000000000000E+009	-4.570078996558885E+000	-1.195806416213130E+000	-2.509471681699827E+001	
2.448000000000000E+009	-4.453140718459175E+000	-1.141505278240461E+000	-2.570916677923631E+001	
2.460000000000000E+009	-4.335567034334134E+000	-1.069514607035863E+000	-2.643710440535152E+001	
2.472000000000000E+009	-4.126994345139296E+000	-9.879611335180700E-001	-2.729857131605058E+001	
2.484000000000000E+009	-3.886527533994313E+000	-9.181972169423522E-001	-2.837919851278584E+001	
2.496000000000000E+009	-3.708476231889020E+000	-8.581142479620957E-001	-3.014042555708564E+001	
2.508000000000000E+009	-3.519882192958705E+000	-8.065558310482446E-001	-3.390336612231574E+001	
2.520000000000000E+009	-3.334447187537450E+000	-9.211525472234977E-001	-3.928827903064712E+001	
2.532000000000000E+009	-2.984170652582745E+000	-2.886723983591853E+000	-2.329303045207983E+001	
2.544000000000000E+009	-2.995407172436534E+000	-2.908262021026067E+000	-2.220954831695900E+001	
2.556000000000000E+009	-2.929278778122804E+000	-1.904291555210486E+000	-2.429702806104402E+001	
2.568000000000000E+009	-2.806862853450240E+000	-1.520987094435075E+000	-2.588679743801473E+001	
2.580000000000000E+009	-2.648644979140893E+000	-1.338361269304610E+000	-2.725719079962609E+001	
2.592000000000000E+009	-2.501473908562745E+000	-1.235433126134774E+000	-2.833439710627793E+001	
2.604000000000000E+009	-2.404595801990199E+000	-1.172917221189845E+000	-2.933517661053284E+001	
2.616000000000000E+009	-2.307472424145119E+000	-1.147448078502640E+000	-3.041171435674167E+001	
2.628000000000000E+009	-2.204011121508414E+000	-1.114414097427207E+000	-3.149616153853920E+001	
2.640000000000000E+009	-2.073514119819609E+000	-1.068972018234773E+000	-3.291988606860360E+001	
2.652000000000000E+009	-1.937705441873949E+000	-9.996556018087057E-001	-3.483862360883879E+001	
2.664000000000000E+009	-1.813764863681016E+000	-9.535156004906193E-001	-3.745025944445916E+001	
2.676000000000000E+009	-1.777702352353659E+000	-9.361922844037612E-001	-4.162621395091944E+001	
2.688000000000000E+009	-2.045154628646686E+000	-9.259997704743500E-001	-3.884040280310117E+001	
2.700000000000000E+009	-3.645188105392577E+000	-9.222276296657053E-001	-3.088048137604318E+001	
2.712000000000000E+009	-1.243569035175788E+001	-9.278220180663034E-001	-2.632530137823196E+001	
2.724000000000000E+009	-1.281530504690470E+001	-9.547215995942637E-001	-2.618833195801192E+001	
2.736000000000000E+009	-6.741497776332793E+000	-9.606770709358419E-001	-2.752469034725148E+001	
2.748000000000000E+009	-4.872670299211680E+000	-9.756048976698358E-001	-2.898257410231687E+001	
2.760000000000000E+009	-3.996500167220768E+000	-9.739534659267821E-001	-3.017542609988922E+001	
2.772000000000000E+009	-3.509707393750819E+000	-9.747319902368783E-001	-3.104923303488455E+001	
2.784000000000000E+009	-3.201699826498042E+000	-9.606375674733992E-001	-3.179766477245487E+001	
2.796000000000000E+009	-3.010901639813828E+000	-9.394103988040049E-001	-3.228549873285718E+001	
2.808000000000000E+009	-2.881923935020601E+000	-9.445313025890921E-001	-3.285766464531017E+001	
2.820000000000000E+009	-2.790174693868027E+000	-9.521724662684272E-001	-3.334906729594170E+001	
2.832000000000000E+009	-2.716528157632909E+000	-9.558160187264189E-001	-3.392358124220279E+001	
2.844000000000000E+009	-2.642450396257915E+000	-9.695317595452563E-001	-3.443431427932851E+001	
2.856000000000000E+009	-2.556458781887501E+000	-9.766743517014953E-001	-3.475123061805970E+001	
2.868000000000000E+009	-2.490173979125305E+000	-9.757255073527898E-001	-3.519803060740189E+001	
2.880000000000000E+009	-2.398716232634954E+000	-9.678757992449290E-001	-3.557879944933045E+001	
2.892000000000000E+009	-2.311870914245284E+000	-9.607504386851463E-001	-3.603116398103074E+001	
2.904000000000000E+009	-2.213119621874625E+000	-9.402321817782630E-001	-3.634974700209153E+001	
2.916000000000000E+009	-2.121450909490396E+000	-9.137747682809675E-001	-3.673082135383395E+001	
2.928000000000000E+009	-2.071537862974623E+000	-8.940339319192858E-001	-3.720337957582203E+001	
2.940000000000000E+009	-2.044302154531482E+000	-8.871183070580490E-001	-3.754601595569692E+001	
2.952000000000000E+009	-2.028738902749772E+000	-9.063544648221655E-001	-3.793700239923588E+001	
2.964000000000000E+009	-2.032526626952972E+000	-9.401578608005803E-001	-3.821532739511340E+001	
2.976000000000000E+009	-2.040303871613918E+000	-9.674635799236372E-001	-3.844831493338077E+001	
2.988000000000000E+009	-2.064044268800319E+000	-9.796058690626273E-001	-3.874636996735367E+001	
3.000000000000000E+009	-2.067506896304761E+000	-9.792860848678076E-001	-3.899489004199624E+001	
