# Version 1.00
#
freq[Hz]	Trc2_S11[dB]	
6.000000000000000E+008	-1.856726614513779E+000	
6.030000000000000E+008	-1.871785819571974E+000	
6.060000000000000E+008	-1.912086054821944E+000	
6.090000000000000E+008	-1.967818789462437E+000	
6.120000000000000E+008	-2.037209848468130E+000	
6.150000000000000E+008	-2.083501685789776E+000	
6.180000000000000E+008	-2.158845648436838E+000	
6.210000000000000E+008	-2.206440617501359E+000	
6.240000000000000E+008	-2.291290426994279E+000	
6.270000000000000E+008	-2.360270063378481E+000	
6.300000000000000E+008	-2.445480681690212E+000	
6.330000000000000E+008	-2.510724183946872E+000	
6.360000000000000E+008	-2.582620563048094E+000	
6.390000000000000E+008	-2.655934279742131E+000	
6.420000000000000E+008	-2.737190388086855E+000	
6.450000000000000E+008	-2.809571087715847E+000	
6.480000000000000E+008	-2.902120780829313E+000	
6.510000000000000E+008	-2.992119000488408E+000	
6.540000000000000E+008	-3.092378317691569E+000	
6.570000000000000E+008	-3.200155162246574E+000	
6.600000000000000E+008	-3.287012649725539E+000	
6.630000000000000E+008	-3.373583627579500E+000	
6.660000000000000E+008	-3.478281802405811E+000	
6.690000000000000E+008	-3.600038782977125E+000	
6.720000000000000E+008	-3.708222966183557E+000	
6.750000000000000E+008	-3.822422780526304E+000	
6.780000000000000E+008	-3.937544288886774E+000	
6.810000000000000E+008	-4.083148038435883E+000	
6.840000000000000E+008	-4.243547622899093E+000	
6.870000000000000E+008	-4.395997618581904E+000	
6.900000000000000E+008	-4.553376782263502E+000	
6.930000000000000E+008	-4.711076804645155E+000	
6.960000000000000E+008	-4.880904197578219E+000	
6.990000000000000E+008	-5.007152958509082E+000	
7.020000000000000E+008	-5.125182823170017E+000	
7.050000000000000E+008	-5.240750503485236E+000	
7.080000000000000E+008	-5.406748950586624E+000	
7.110000000000000E+008	-5.633383539549580E+000	
7.140000000000000E+008	-5.889621643090735E+000	
7.170000000000000E+008	-6.110122954452222E+000	
7.200000000000000E+008	-6.282118063883038E+000	
7.230000000000000E+008	-6.449354135424111E+000	
7.260000000000000E+008	-6.600884230615026E+000	
7.290000000000000E+008	-6.780482503725570E+000	
7.320000000000000E+008	-6.928077116898931E+000	
7.350000000000000E+008	-7.136357574824735E+000	
7.380000000000000E+008	-7.411917713994070E+000	
7.410000000000000E+008	-7.585828437463742E+000	
7.440000000000000E+008	-7.740751088801074E+000	
7.470000000000000E+008	-7.932335938340108E+000	
7.500000000000000E+008	-8.152836006193192E+000	
7.530000000000000E+008	-8.340780417547451E+000	
7.560000000000000E+008	-8.510754495985772E+000	
7.590000000000000E+008	-8.646593643098766E+000	
7.620000000000000E+008	-8.722495531367676E+000	
7.650000000000000E+008	-8.811813100290523E+000	
7.680000000000000E+008	-9.006338262367512E+000	
7.710000000000000E+008	-9.233818736090607E+000	
7.740000000000000E+008	-9.433187444622103E+000	
7.770000000000000E+008	-9.590932518386325E+000	
7.800000000000000E+008	-9.674443338847828E+000	
7.830000000000000E+008	-9.872969461708186E+000	
7.860000000000000E+008	-1.015095571749051E+001	
7.890000000000000E+008	-1.037175737250977E+001	
7.920000000000000E+008	-1.044045458521128E+001	
7.950000000000000E+008	-1.034734408508777E+001	
7.980000000000000E+008	-1.035042417274386E+001	
8.010000000000000E+008	-1.043274595219668E+001	
8.040000000000000E+008	-1.060266543295922E+001	
8.070000000000000E+008	-1.089260267218766E+001	
8.100000000000000E+008	-1.129961402929773E+001	
8.130000000000000E+008	-1.158535812303196E+001	
8.160000000000000E+008	-1.171032048310471E+001	
8.190000000000000E+008	-1.177929657414701E+001	
8.220000000000000E+008	-1.196503199108352E+001	
8.250000000000000E+008	-1.226077808409527E+001	
8.280000000000000E+008	-1.257050612996331E+001	
8.310000000000000E+008	-1.281067502682054E+001	
8.340000000000000E+008	-1.284043789496039E+001	
8.370000000000000E+008	-1.283023412609915E+001	
8.400000000000000E+008	-1.283406114551557E+001	
8.430000000000000E+008	-1.286303631716289E+001	
8.460000000000000E+008	-1.292259645997076E+001	
8.490000000000000E+008	-1.310431344686834E+001	
8.520000000000000E+008	-1.335967138629138E+001	
8.550000000000000E+008	-1.369600833611704E+001	
8.580000000000000E+008	-1.416744175383626E+001	
8.610000000000000E+008	-1.446375862966847E+001	
8.640000000000000E+008	-1.459260037302519E+001	
8.670000000000000E+008	-1.464049585053679E+001	
8.700000000000000E+008	-1.470167476071856E+001	
8.730000000000000E+008	-1.467092278358779E+001	
8.760000000000000E+008	-1.463288356984984E+001	
8.790000000000000E+008	-1.460366452092888E+001	
8.820000000000000E+008	-1.447523915323915E+001	
8.850000000000000E+008	-1.425354556622189E+001	
8.880000000000000E+008	-1.401909555848663E+001	
8.910000000000000E+008	-1.384214515804577E+001	
8.940000000000000E+008	-1.371973732401937E+001	
8.970000000000000E+008	-1.363173172085024E+001	
9.000000000000000E+008	-1.354945038130046E+001	
9.030000000000000E+008	-1.354819469482253E+001	
9.060000000000000E+008	-1.365606065172850E+001	
9.090000000000000E+008	-1.387384043485623E+001	
9.120000000000000E+008	-1.418084661195065E+001	
9.150000000000000E+008	-1.461700516023239E+001	
9.180000000000000E+008	-1.493223103143939E+001	
9.210000000000000E+008	-1.516134813292467E+001	
9.240000000000000E+008	-1.536948923737016E+001	
9.270000000000000E+008	-1.558729836098127E+001	
9.300000000000000E+008	-1.577371628184488E+001	
9.330000000000000E+008	-1.575923268506219E+001	
9.360000000000000E+008	-1.572992906634870E+001	
9.390000000000000E+008	-1.579595004077200E+001	
9.420000000000000E+008	-1.582750270991674E+001	
9.450000000000000E+008	-1.583243572688195E+001	
9.480000000000000E+008	-1.584428148951371E+001	
9.510000000000000E+008	-1.592174341178696E+001	
9.540000000000000E+008	-1.601831953989989E+001	
9.570000000000000E+008	-1.624989125573676E+001	
9.600000000000000E+008	-1.654343957984186E+001	
9.630000000000000E+008	-1.674876060714795E+001	
9.660000000000000E+008	-1.675133972562206E+001	
9.690000000000000E+008	-1.656720777001660E+001	
9.720000000000000E+008	-1.630200395975665E+001	
9.750000000000000E+008	-1.604283173315276E+001	
9.780000000000000E+008	-1.588055485927067E+001	
9.810000000000000E+008	-1.568453122225036E+001	
9.840000000000000E+008	-1.551769186052073E+001	
9.870000000000000E+008	-1.545084341868068E+001	
9.900000000000000E+008	-1.540971530753058E+001	
9.930000000000000E+008	-1.522513000470607E+001	
9.960000000000000E+008	-1.497895717214054E+001	
9.990000000000000E+008	-1.461574843734047E+001	
1.002000000000000E+009	-1.416153411483349E+001	
1.005000000000000E+009	-1.375147238928227E+001	
1.008000000000000E+009	-1.336004994462402E+001	
1.011000000000000E+009	-1.293158208979381E+001	
1.014000000000000E+009	-1.254460985061008E+001	
1.017000000000000E+009	-1.230225227815778E+001	
1.020000000000000E+009	-1.210682921044591E+001	
1.023000000000000E+009	-1.188170603356210E+001	
1.026000000000000E+009	-1.167219467851876E+001	
1.029000000000000E+009	-1.152609611621044E+001	
1.032000000000000E+009	-1.141175644794327E+001	
1.035000000000000E+009	-1.127016379610686E+001	
1.038000000000000E+009	-1.108768507627392E+001	
1.041000000000000E+009	-1.082636770065449E+001	
1.044000000000000E+009	-1.053866535148590E+001	
1.047000000000000E+009	-1.042125143110991E+001	
1.050000000000000E+009	-1.037512061144375E+001	
1.053000000000000E+009	-1.024255406167304E+001	
1.056000000000000E+009	-1.002480016104831E+001	
1.059000000000000E+009	-9.722684804780394E+000	
1.062000000000000E+009	-9.412058444385322E+000	
1.065000000000000E+009	-9.111623448864862E+000	
1.068000000000000E+009	-8.774171316555121E+000	
1.071000000000000E+009	-8.436086796061073E+000	
1.074000000000000E+009	-8.102895321333705E+000	
1.077000000000000E+009	-7.816757158668810E+000	
1.080000000000000E+009	-7.576860317631828E+000	
1.083000000000000E+009	-7.383625432331852E+000	
1.086000000000000E+009	-7.191983304661820E+000	
1.089000000000000E+009	-7.023576949769976E+000	
1.092000000000000E+009	-6.911244414079837E+000	
1.095000000000000E+009	-6.790392692075144E+000	
1.098000000000000E+009	-6.701782950197649E+000	
1.101000000000000E+009	-6.621107814647897E+000	
1.104000000000000E+009	-6.524728453694564E+000	
1.107000000000000E+009	-6.411244455795270E+000	
1.110000000000000E+009	-6.269951026258043E+000	
1.113000000000000E+009	-6.076825529066929E+000	
1.116000000000000E+009	-5.866652939768765E+000	
1.119000000000000E+009	-5.696981691605524E+000	
1.122000000000000E+009	-5.546430368012511E+000	
1.125000000000000E+009	-5.389985855961619E+000	
1.128000000000000E+009	-5.214291891451017E+000	
1.131000000000000E+009	-5.039367936915054E+000	
1.134000000000000E+009	-4.898784700969216E+000	
1.137000000000000E+009	-4.781375599526642E+000	
1.140000000000000E+009	-4.693056272205507E+000	
1.143000000000000E+009	-4.602226236575144E+000	
1.146000000000000E+009	-4.475092750088421E+000	
1.149000000000000E+009	-4.346762610074040E+000	
1.152000000000000E+009	-4.261976933487791E+000	
1.155000000000000E+009	-4.186090546885917E+000	
1.158000000000000E+009	-4.099503664364423E+000	
1.161000000000000E+009	-3.997327564134642E+000	
1.164000000000000E+009	-3.897381694786044E+000	
1.167000000000000E+009	-3.791276864887492E+000	
1.170000000000000E+009	-3.688528445956396E+000	
1.173000000000000E+009	-3.584895426583928E+000	
1.176000000000000E+009	-3.498146760731639E+000	
1.179000000000000E+009	-3.436933522843455E+000	
1.182000000000000E+009	-3.388460767233767E+000	
1.185000000000000E+009	-3.342870997397709E+000	
1.188000000000000E+009	-3.299338353741095E+000	
1.191000000000000E+009	-3.286058956959228E+000	
1.194000000000000E+009	-3.271105882705024E+000	
1.197000000000000E+009	-3.236412202651358E+000	
1.200000000000000E+009	-3.200038730193870E+000	
1.203000000000000E+009	-3.183972421695694E+000	
1.206000000000000E+009	-3.150029003281338E+000	
1.209000000000000E+009	-3.098780898350632E+000	
1.212000000000000E+009	-3.023926516714276E+000	
1.215000000000000E+009	-2.977456721533640E+000	
1.218000000000000E+009	-2.927041131789401E+000	
1.221000000000000E+009	-2.875543210856994E+000	
1.224000000000000E+009	-2.828827754475338E+000	
1.227000000000000E+009	-2.787005349727429E+000	
1.230000000000000E+009	-2.738917565748421E+000	
1.233000000000000E+009	-2.688188677476711E+000	
1.236000000000000E+009	-2.645516500235567E+000	
1.239000000000000E+009	-2.612190550212497E+000	
1.242000000000000E+009	-2.584815668575622E+000	
1.245000000000000E+009	-2.541702628117202E+000	
1.248000000000000E+009	-2.505674231277441E+000	
1.251000000000000E+009	-2.476965600829281E+000	
1.254000000000000E+009	-2.459713898157274E+000	
1.257000000000000E+009	-2.422702851191519E+000	
1.260000000000000E+009	-2.390274316015916E+000	
1.263000000000000E+009	-2.372900897032835E+000	
1.266000000000000E+009	-2.354065886094816E+000	
1.269000000000000E+009	-2.338738170548034E+000	
1.272000000000000E+009	-2.324823607965139E+000	
1.275000000000000E+009	-2.306945233205508E+000	
1.278000000000000E+009	-2.269151606032559E+000	
1.281000000000000E+009	-2.243336951242861E+000	
1.284000000000000E+009	-2.210852113531550E+000	
1.287000000000000E+009	-2.176993257027571E+000	
1.290000000000000E+009	-2.153550781678118E+000	
1.293000000000000E+009	-2.141350324779292E+000	
1.296000000000000E+009	-2.137752099190984E+000	
1.299000000000000E+009	-2.127286603564329E+000	
1.302000000000000E+009	-2.108300954734221E+000	
1.305000000000000E+009	-2.088335860768884E+000	
1.308000000000000E+009	-2.068580649857686E+000	
1.311000000000000E+009	-2.050042673705701E+000	
1.314000000000000E+009	-2.020731736580163E+000	
1.317000000000000E+009	-2.007330495833485E+000	
1.320000000000000E+009	-2.000792073324944E+000	
1.323000000000000E+009	-1.996401417354210E+000	
1.326000000000000E+009	-1.991603023391894E+000	
1.329000000000000E+009	-1.976707960177941E+000	
1.332000000000000E+009	-1.963340722048630E+000	
1.335000000000000E+009	-1.937357821083199E+000	
1.338000000000000E+009	-1.939515703558556E+000	
1.341000000000000E+009	-1.934614058306534E+000	
1.344000000000000E+009	-1.918353171440897E+000	
1.347000000000000E+009	-1.902877413216796E+000	
1.350000000000000E+009	-1.893972895142643E+000	
1.353000000000000E+009	-1.877967081250856E+000	
1.356000000000000E+009	-1.867054346547378E+000	
1.359000000000000E+009	-1.857425234049864E+000	
1.362000000000000E+009	-1.857019081629066E+000	
1.365000000000000E+009	-1.842340878688660E+000	
1.368000000000000E+009	-1.853839311282356E+000	
1.371000000000000E+009	-1.853269899539093E+000	
1.374000000000000E+009	-1.850671645857027E+000	
1.377000000000000E+009	-1.845937541593624E+000	
1.380000000000000E+009	-1.848612476242297E+000	
1.383000000000000E+009	-1.856082786672454E+000	
1.386000000000000E+009	-1.866079802863523E+000	
1.389000000000000E+009	-1.879695866907520E+000	
1.392000000000000E+009	-1.890997881450246E+000	
1.395000000000000E+009	-1.893981988199033E+000	
1.398000000000000E+009	-1.897908215998112E+000	
1.401000000000000E+009	-1.904618320420643E+000	
1.404000000000000E+009	-1.910021037178078E+000	
1.407000000000000E+009	-1.925379304917767E+000	
1.410000000000000E+009	-1.932347677704497E+000	
1.413000000000000E+009	-1.939044493342105E+000	
1.416000000000000E+009	-1.948513692271729E+000	
1.419000000000000E+009	-1.953852078757438E+000	
1.422000000000000E+009	-1.966426425177723E+000	
1.425000000000000E+009	-1.956731182356066E+000	
1.428000000000000E+009	-1.975950246259551E+000	
1.431000000000000E+009	-1.985245551916963E+000	
1.434000000000000E+009	-2.015340748847057E+000	
1.437000000000000E+009	-2.047087372921682E+000	
1.440000000000000E+009	-2.062548348498094E+000	
1.443000000000000E+009	-2.083770075967470E+000	
1.446000000000000E+009	-2.087734959342428E+000	
1.449000000000000E+009	-2.088866229630574E+000	
1.452000000000000E+009	-2.085255254515611E+000	
1.455000000000000E+009	-2.060732674183971E+000	
1.458000000000000E+009	-2.041145716152969E+000	
1.461000000000000E+009	-2.040944016325600E+000	
1.464000000000000E+009	-2.035415209063175E+000	
1.467000000000000E+009	-2.043227188690326E+000	
1.470000000000000E+009	-2.038295351763372E+000	
1.473000000000000E+009	-2.047766625521284E+000	
1.476000000000000E+009	-2.056529261787442E+000	
1.479000000000000E+009	-2.056844525457887E+000	
1.482000000000000E+009	-2.067536537337111E+000	
1.485000000000000E+009	-2.079696426537863E+000	
1.488000000000000E+009	-2.073072124412002E+000	
1.491000000000000E+009	-2.078670479823041E+000	
1.494000000000000E+009	-2.076993172124182E+000	
1.497000000000000E+009	-2.089067206051007E+000	
1.500000000000000E+009	-2.104895680737068E+000	
1.503000000000000E+009	-2.113140461166543E+000	
1.506000000000000E+009	-2.132939438438670E+000	
1.509000000000000E+009	-2.128041519095198E+000	
1.512000000000000E+009	-2.140413539745079E+000	
1.515000000000000E+009	-2.155615765188428E+000	
1.518000000000000E+009	-2.192113371137546E+000	
1.521000000000000E+009	-2.207483286203976E+000	
1.524000000000000E+009	-2.245357266917637E+000	
1.527000000000000E+009	-2.257792079127133E+000	
1.530000000000000E+009	-2.294913159477125E+000	
1.533000000000000E+009	-2.330220176119777E+000	
1.536000000000000E+009	-2.363857590488996E+000	
1.539000000000000E+009	-2.397698478690673E+000	
1.542000000000000E+009	-2.427080820392967E+000	
1.545000000000000E+009	-2.443928449764262E+000	
1.548000000000000E+009	-2.457648127675296E+000	
1.551000000000000E+009	-2.474183016235333E+000	
1.554000000000000E+009	-2.503492903692170E+000	
1.557000000000000E+009	-2.544108672252161E+000	
1.560000000000000E+009	-2.600335427368876E+000	
1.563000000000000E+009	-2.653621855557856E+000	
1.566000000000000E+009	-2.687989578131631E+000	
1.569000000000000E+009	-2.735809815005266E+000	
1.572000000000000E+009	-2.800516965586110E+000	
1.575000000000000E+009	-2.837230363659901E+000	
1.578000000000000E+009	-2.887576526215213E+000	
1.581000000000000E+009	-2.937407801681946E+000	
1.584000000000000E+009	-3.001735267688037E+000	
1.587000000000000E+009	-3.069296266931123E+000	
1.590000000000000E+009	-3.140290224299173E+000	
1.593000000000000E+009	-3.183118563835949E+000	
1.596000000000000E+009	-3.245431727744359E+000	
1.599000000000000E+009	-3.306027310405618E+000	
1.602000000000000E+009	-3.367298094829609E+000	
1.605000000000000E+009	-3.439846433619676E+000	
1.608000000000000E+009	-3.515872523574532E+000	
1.611000000000000E+009	-3.584075176231148E+000	
1.614000000000000E+009	-3.647015449619101E+000	
1.617000000000000E+009	-3.715444106611036E+000	
1.620000000000000E+009	-3.784935309176937E+000	
1.623000000000000E+009	-3.864748752699891E+000	
1.626000000000000E+009	-3.920822267074108E+000	
1.629000000000000E+009	-3.973789337446342E+000	
1.632000000000000E+009	-4.026833163648887E+000	
1.635000000000000E+009	-4.063127213130633E+000	
1.638000000000000E+009	-4.101251592562878E+000	
1.641000000000000E+009	-4.136315040399083E+000	
1.644000000000000E+009	-4.177415075576440E+000	
1.647000000000000E+009	-4.236837601247989E+000	
1.650000000000000E+009	-4.280823172738717E+000	
1.653000000000000E+009	-4.332687865655968E+000	
1.656000000000000E+009	-4.385825404572122E+000	
1.659000000000000E+009	-4.462186866303060E+000	
1.662000000000000E+009	-4.541747905599822E+000	
1.665000000000000E+009	-4.625856988297986E+000	
1.668000000000000E+009	-4.700672934777281E+000	
1.671000000000000E+009	-4.784480568614278E+000	
1.674000000000000E+009	-4.862632940450367E+000	
1.677000000000000E+009	-4.938364615449303E+000	
1.680000000000000E+009	-4.982025643404536E+000	
1.683000000000000E+009	-5.025307819414568E+000	
1.686000000000000E+009	-5.067335320030237E+000	
1.689000000000000E+009	-5.098456994758296E+000	
1.692000000000000E+009	-5.118681914419012E+000	
1.695000000000000E+009	-5.163544831595036E+000	
1.698000000000000E+009	-5.211740331846139E+000	
1.701000000000000E+009	-5.282605403113497E+000	
1.704000000000000E+009	-5.364372430087724E+000	
1.707000000000000E+009	-5.442193746251533E+000	
1.710000000000000E+009	-5.488432287724217E+000	
1.713000000000000E+009	-5.532873887703185E+000	
1.716000000000000E+009	-5.600216754560754E+000	
1.719000000000000E+009	-5.647558309654378E+000	
1.722000000000000E+009	-5.681969874091108E+000	
1.725000000000000E+009	-5.697686308890092E+000	
1.728000000000000E+009	-5.714140023567256E+000	
1.731000000000000E+009	-5.727960912278949E+000	
1.734000000000000E+009	-5.735229178909726E+000	
1.737000000000000E+009	-5.727667404766292E+000	
1.740000000000000E+009	-5.685058865788263E+000	
1.743000000000000E+009	-5.639810610241161E+000	
1.746000000000000E+009	-5.627673190440268E+000	
1.749000000000000E+009	-5.602245662811721E+000	
1.752000000000000E+009	-5.605083716838552E+000	
1.755000000000000E+009	-5.597026356518552E+000	
1.758000000000000E+009	-5.602037111394033E+000	
1.761000000000000E+009	-5.616577338764857E+000	
1.764000000000000E+009	-5.646883792394201E+000	
1.767000000000000E+009	-5.650136355584150E+000	
1.770000000000000E+009	-5.639457194933135E+000	
1.773000000000000E+009	-5.623572554654386E+000	
1.776000000000000E+009	-5.617216833308483E+000	
1.779000000000000E+009	-5.609217765258218E+000	
1.782000000000000E+009	-5.608346007916893E+000	
1.785000000000000E+009	-5.598792109343107E+000	
1.788000000000000E+009	-5.585632618595030E+000	
1.791000000000000E+009	-5.551039565415456E+000	
1.794000000000000E+009	-5.540971274068541E+000	
1.797000000000000E+009	-5.521431079470798E+000	
1.800000000000000E+009	-5.511924108492799E+000	
1.803000000000000E+009	-5.506623586299974E+000	
1.806000000000000E+009	-5.492926287775125E+000	
1.809000000000000E+009	-5.478994120235600E+000	
1.812000000000000E+009	-5.446052529745049E+000	
1.815000000000000E+009	-5.396205102969567E+000	
1.818000000000000E+009	-5.363789339538039E+000	
