# Version 1.00
#
freq[Hz]	Trc1_S21[dB]	Ch1_SG_S11_S11[dB]	Ch1_SG_S12_S12[dB]	Ch1_SG_S21_S21[dB]	Ch1_SG_S22_S22[dB]	RX_S22[dB]	TX_S11[dB]	ISO_S21[dB]	
6.000000000000000E+008	-4.871948235908316E+001	-7.182519006193955E-001	-4.851675648282784E+001	-4.871948235908316E+001	-2.833527123376045E-001	-2.833527123376045E-001	-7.182519006193955E-001	-4.871948235908316E+001	
6.120000000000000E+008	-4.720739288467863E+001	-8.295940213383454E-001	-4.725372930852984E+001	-4.720739288467863E+001	-3.220088569625082E-001	-3.220088569625082E-001	-8.295940213383454E-001	-4.720739288467863E+001	
6.240000000000000E+008	-4.400593774004707E+001	-9.923887906288814E-001	-4.399606963508085E+001	-4.400593774004707E+001	-3.620307369276953E-001	-3.620307369276953E-001	-9.923887906288814E-001	-4.400593774004707E+001	
6.360000000000000E+008	-3.754028681723312E+001	-1.166728998542207E+000	-3.753819495330231E+001	-3.754028681723312E+001	-4.128777463416891E-001	-4.128777463416891E-001	-1.166728998542207E+000	-3.754028681723312E+001	
6.480000000000000E+008	-3.405256185091525E+001	-1.329499441968987E+000	-3.407778517303026E+001	-3.405256185091525E+001	-4.727380042575725E-001	-4.727380042575725E-001	-1.329499441968987E+000	-3.405256185091525E+001	
6.600000000000000E+008	-3.166177618354741E+001	-1.737093770566884E+000	-3.167917299002256E+001	-3.166177618354741E+001	-5.442809978928396E-001	-5.442809978928396E-001	-1.737093770566884E+000	-3.166177618354741E+001	
6.720000000000000E+008	-2.909535337836359E+001	-2.506662159423909E+000	-2.913786125424413E+001	-2.909535337836359E+001	-6.595335784524304E-001	-6.595335784524304E-001	-2.506662159423909E+000	-2.909535337836359E+001	
6.840000000000000E+008	-2.675337970861932E+001	-4.013507053743018E+000	-2.677485850179370E+001	-2.675337970861932E+001	-8.340791233057839E-001	-8.340791233057839E-001	-4.013507053743018E+000	-2.675337970861932E+001	
6.960000000000000E+008	-2.461768584909327E+001	-6.645415505639560E+000	-2.464003613627790E+001	-2.461768584909327E+001	-1.090347089584534E+000	-1.090347089584534E+000	-6.645415505639560E+000	-2.461768584909327E+001	
7.080000000000000E+008	-2.353117483202271E+001	-1.025523792643122E+001	-2.353290107017078E+001	-2.353117483202271E+001	-1.553174123086469E+000	-1.553174123086469E+000	-1.025523792643122E+001	-2.353117483202271E+001	
7.200000000000000E+008	-2.187141511485049E+001	-1.017700753904937E+001	-2.191040596095328E+001	-2.187141511485049E+001	-2.537037878912814E+000	-2.537037878912814E+000	-1.017700753904937E+001	-2.187141511485049E+001	
7.320000000000000E+008	-1.679330338897536E+001	-8.858462820364549E+000	-1.684098369085207E+001	-1.679330338897536E+001	-4.485292068415505E+000	-4.485292068415505E+000	-8.858462820364549E+000	-1.679330338897536E+001	
7.440000000000000E+008	-1.424690442640394E+001	-7.022811304461263E+000	-1.427265537922295E+001	-1.424690442640394E+001	-6.169271529960293E+000	-6.169271529960293E+000	-7.022811304461263E+000	-1.424690442640394E+001	
7.560000000000000E+008	-1.355357759064087E+001	-5.191830536208352E+000	-1.358794826294657E+001	-1.355357759064087E+001	-1.144501583526240E+001	-1.144501583526240E+001	-5.191830536208352E+000	-1.355357759064087E+001	
7.680000000000000E+008	-1.384087161415467E+001	-4.059472056666272E+000	-1.385239846668750E+001	-1.384087161415467E+001	-2.503276876412760E+001	-2.503276876412760E+001	-4.059472056666272E+000	-1.384087161415467E+001	
7.800000000000000E+008	-1.516780249681960E+001	-3.153482289593660E+000	-1.523807029975140E+001	-1.516780249681960E+001	-8.624636939920038E+000	-8.624636939920038E+000	-3.153482289593660E+000	-1.516780249681960E+001	
7.920000000000000E+008	-1.738703822293408E+001	-2.520737597711163E+000	-1.737512324643575E+001	-1.738703822293408E+001	-4.663567423202220E+000	-4.663567423202220E+000	-2.520737597711163E+000	-1.738703822293408E+001	
8.040000000000000E+008	-1.952817275639737E+001	-2.221566437497806E+000	-1.949893723981842E+001	-1.952817275639737E+001	-2.972857604063380E+000	-2.972857604063380E+000	-2.221566437497806E+000	-1.952817275639737E+001	
8.160000000000000E+008	-2.248841340322831E+001	-1.994963628541458E+000	-2.247658595231489E+001	-2.248841340322831E+001	-2.104850714369171E+000	-2.104850714369171E+000	-1.994963628541458E+000	-2.248841340322831E+001	
8.280000000000000E+008	-2.523985468147536E+001	-1.682604297727209E+000	-2.528004328641019E+001	-2.523985468147536E+001	-1.456469387675623E+000	-1.456469387675623E+000	-1.682604297727209E+000	-2.523985468147536E+001	
8.400000000000000E+008	-2.581251718298465E+001	-1.523696551889523E+000	-2.584209352163048E+001	-2.581251718298465E+001	-1.118434936528858E+000	-1.118434936528858E+000	-1.523696551889523E+000	-2.581251718298465E+001	
8.520000000000000E+008	-2.674803264121240E+001	-1.461250524793126E+000	-2.679045957557159E+001	-2.674803264121240E+001	-9.395120565837325E-001	-9.395120565837325E-001	-1.461250524793126E+000	-2.674803264121240E+001	
8.640000000000000E+008	-2.776798903018950E+001	-1.447802046279010E+000	-2.777624385600030E+001	-2.776798903018950E+001	-8.172563437581327E-001	-8.172563437581327E-001	-1.447802046279010E+000	-2.776798903018950E+001	
8.760000000000000E+008	-2.848138956247578E+001	-1.445669988063554E+000	-2.851080814146008E+001	-2.848138956247578E+001	-7.469871000398287E-001	-7.469871000398287E-001	-1.445669988063554E+000	-2.848138956247578E+001	
8.880000000000000E+008	-2.979811194188495E+001	-1.391065281440918E+000	-2.983222435130563E+001	-2.979811194188495E+001	-6.903857582744850E-001	-6.903857582744850E-001	-1.391065281440918E+000	-2.979811194188495E+001	
9.000000000000000E+008	-3.056074631738198E+001	-1.306783371805273E+000	-3.053717562101370E+001	-3.056074631738198E+001	-6.472741995591225E-001	-6.472741995591225E-001	-1.306783371805273E+000	-3.056074631738198E+001	
9.120000000000000E+008	-3.108687998039709E+001	-1.281859032170583E+000	-3.109910143791892E+001	-3.108687998039709E+001	-6.004956517270723E-001	-6.004956517270723E-001	-1.281859032170583E+000	-3.108687998039709E+001	
9.240000000000000E+008	-3.163648132991029E+001	-1.243653271270178E+000	-3.162922035498003E+001	-3.163648132991029E+001	-5.722664391467067E-001	-5.722664391467067E-001	-1.243653271270178E+000	-3.163648132991029E+001	
9.360000000000000E+008	-3.222320147138085E+001	-1.224130677089335E+000	-3.229692779264005E+001	-3.222320147138085E+001	-5.455493961202164E-001	-5.455493961202164E-001	-1.224130677089335E+000	-3.222320147138085E+001	
9.480000000000000E+008	-3.264131247336345E+001	-1.214724452602877E+000	-3.262673347520590E+001	-3.264131247336345E+001	-5.197204544964413E-001	-5.197204544964413E-001	-1.214724452602877E+000	-3.264131247336345E+001	
9.600000000000000E+008	-3.339277666683145E+001	-1.192802105422064E+000	-3.341509831053715E+001	-3.339277666683145E+001	-5.252889032327216E-001	-5.252889032327216E-001	-1.192802105422064E+000	-3.339277666683145E+001	
9.720000000000000E+008	-3.398301902648692E+001	-1.169259085401369E+000	-3.399631277407342E+001	-3.398301902648692E+001	-5.237066881111328E-001	-5.237066881111328E-001	-1.169259085401369E+000	-3.398301902648692E+001	
9.840000000000000E+008	-3.471200475625604E+001	-1.133002466786643E+000	-3.475777002477217E+001	-3.471200475625604E+001	-5.149595352920439E-001	-5.149595352920439E-001	-1.133002466786643E+000	-3.471200475625604E+001	
9.960000000000000E+008	-3.557413511389063E+001	-1.118359781344609E+000	-3.560897385968929E+001	-3.557413511389063E+001	-5.089665663195498E-001	-5.089665663195498E-001	-1.118359781344609E+000	-3.557413511389063E+001	
1.008000000000000E+009	-3.631397662145874E+001	-1.082550533162931E+000	-3.631116381510026E+001	-3.631397662145874E+001	-4.905832759525453E-001	-4.905832759525453E-001	-1.082550533162931E+000	-3.631397662145874E+001	
1.020000000000000E+009	-3.673641964349617E+001	-1.068568048649831E+000	-3.677093913117248E+001	-3.673641964349617E+001	-4.867141848539027E-001	-4.867141848539027E-001	-1.068568048649831E+000	-3.673641964349617E+001	
1.032000000000000E+009	-3.796746697720952E+001	-1.033581846871848E+000	-3.800005703382114E+001	-3.796746697720952E+001	-4.864673334222144E-001	-4.864673334222144E-001	-1.033581846871848E+000	-3.796746697720952E+001	
1.044000000000000E+009	-3.909865015900839E+001	-1.016419113870372E+000	-3.905867945070349E+001	-3.909865015900839E+001	-4.965696916228682E-001	-4.965696916228682E-001	-1.016419113870372E+000	-3.909865015900839E+001	
1.056000000000000E+009	-3.914325393312920E+001	-9.908216419873003E-001	-3.916124779422637E+001	-3.914325393312920E+001	-4.991442872061103E-001	-4.991442872061103E-001	-9.908216419873003E-001	-3.914325393312920E+001	
1.068000000000000E+009	-3.958994642875891E+001	-9.840902926070099E-001	-3.964069841517152E+001	-3.958994642875891E+001	-5.070975219256586E-001	-5.070975219256586E-001	-9.840902926070099E-001	-3.958994642875891E+001	
1.080000000000000E+009	-4.005437876627644E+001	-9.894153641320612E-001	-4.012480598893510E+001	-4.005437876627644E+001	-4.965203329773547E-001	-4.965203329773547E-001	-9.894153641320612E-001	-4.005437876627644E+001	
1.092000000000000E+009	-3.975959632979190E+001	-9.880053535047838E-001	-3.983103123908259E+001	-3.975959632979190E+001	-5.032360934145975E-001	-5.032360934145975E-001	-9.880053535047838E-001	-3.975959632979190E+001	
1.104000000000000E+009	-3.971011753212621E+001	-1.014297413977261E+000	-3.972386066501110E+001	-3.971011753212621E+001	-5.124568620775191E-001	-5.124568620775191E-001	-1.014297413977261E+000	-3.971011753212621E+001	
1.116000000000000E+009	-3.947977530948699E+001	-9.831534225571788E-001	-3.951984985038636E+001	-3.947977530948699E+001	-5.166540044523681E-001	-5.166540044523681E-001	-9.831534225571788E-001	-3.947977530948699E+001	
1.128000000000000E+009	-3.927837123511367E+001	-9.732151129698002E-001	-3.922587015097560E+001	-3.927837123511367E+001	-5.283676722914973E-001	-5.283676722914973E-001	-9.732151129698002E-001	-3.927837123511367E+001	
1.140000000000000E+009	-3.886621389789950E+001	-9.900584816398448E-001	-3.884359515666043E+001	-3.886621389789950E+001	-5.412253138218272E-001	-5.412253138218272E-001	-9.900584816398448E-001	-3.886621389789950E+001	
1.152000000000000E+009	-3.897410929908458E+001	-9.919674689428130E-001	-3.900318591492334E+001	-3.897410929908458E+001	-5.626898631302367E-001	-5.626898631302367E-001	-9.919674689428130E-001	-3.897410929908458E+001	
1.164000000000000E+009	-3.911376393905039E+001	-9.633836650851141E-001	-3.920096226908598E+001	-3.911376393905039E+001	-5.843291782594944E-001	-5.843291782594944E-001	-9.633836650851141E-001	-3.911376393905039E+001	
1.176000000000000E+009	-3.904093406921583E+001	-9.777383429526989E-001	-3.900796119391875E+001	-3.904093406921583E+001	-5.495019245761106E-001	-5.495019245761106E-001	-9.777383429526989E-001	-3.904093406921583E+001	
1.188000000000000E+009	-3.893501911985476E+001	-1.001132948641905E+000	-3.890795222170994E+001	-3.893501911985476E+001	-5.646090585109415E-001	-5.646090585109415E-001	-1.001132948641905E+000	-3.893501911985476E+001	
1.200000000000000E+009	-3.946863339093743E+001	-9.915538874454238E-001	-3.949123424021298E+001	-3.946863339093743E+001	-5.812229895912274E-001	-5.812229895912274E-001	-9.915538874454238E-001	-3.946863339093743E+001	
1.212000000000000E+009	-3.936772368232241E+001	-9.972334334896499E-001	-3.939651297436285E+001	-3.936772368232241E+001	-6.165047571901892E-001	-6.165047571901892E-001	-9.972334334896499E-001	-3.936772368232241E+001	
1.224000000000000E+009	-3.894428697460860E+001	-1.000308757611892E+000	-3.885872865734270E+001	-3.894428697460860E+001	-6.415235245150943E-001	-6.415235245150943E-001	-1.000308757611892E+000	-3.894428697460860E+001	
1.236000000000000E+009	-3.832679572625573E+001	-1.010788851164504E+000	-3.830631420827696E+001	-3.832679572625573E+001	-6.751831718720265E-001	-6.751831718720265E-001	-1.010788851164504E+000	-3.832679572625573E+001	
1.248000000000000E+009	-3.842018530234389E+001	-1.020183534317247E+000	-3.840819464402879E+001	-3.842018530234389E+001	-6.894536672460163E-001	-6.894536672460163E-001	-1.020183534317247E+000	-3.842018530234389E+001	
1.260000000000000E+009	-3.801425142386932E+001	-1.037606612790879E+000	-3.802150117971669E+001	-3.801425142386932E+001	-7.197697946201624E-001	-7.197697946201624E-001	-1.037606612790879E+000	-3.801425142386932E+001	
1.272000000000000E+009	-3.786372408607167E+001	-1.057381420851609E+000	-3.791920803645994E+001	-3.786372408607167E+001	-7.280038234708216E-001	-7.280038234708216E-001	-1.057381420851609E+000	-3.786372408607167E+001	
1.284000000000000E+009	-3.732259635622997E+001	-1.089905367598391E+000	-3.739193858363245E+001	-3.732259635622997E+001	-7.481033334970415E-001	-7.481033334970415E-001	-1.089905367598391E+000	-3.732259635622997E+001	
1.296000000000000E+009	-3.702993883621714E+001	-1.109389566668451E+000	-3.706037054811041E+001	-3.702993883621714E+001	-7.711464493776180E-001	-7.711464493776180E-001	-1.109389566668451E+000	-3.702993883621714E+001	
1.308000000000000E+009	-3.661837216547546E+001	-1.122830551194472E+000	-3.666745223666445E+001	-3.661837216547546E+001	-8.074986887892720E-001	-8.074986887892720E-001	-1.122830551194472E+000	-3.661837216547546E+001	
1.320000000000000E+009	-3.621920078321840E+001	-1.136927388408894E+000	-3.622528555220833E+001	-3.621920078321840E+001	-8.463170084880168E-001	-8.463170084880168E-001	-1.136927388408894E+000	-3.621920078321840E+001	
1.332000000000000E+009	-3.611514494426239E+001	-1.164575921792317E+000	-3.610019970207377E+001	-3.611514494426239E+001	-8.924518380574174E-001	-8.924518380574174E-001	-1.164575921792317E+000	-3.611514494426239E+001	
1.344000000000000E+009	-3.565223021816890E+001	-1.199455508095588E+000	-3.569498747579245E+001	-3.565223021816890E+001	-9.201801924026778E-001	-9.201801924026778E-001	-1.199455508095588E+000	-3.565223021816890E+001	
1.356000000000000E+009	-3.497316586222857E+001	-1.239664635198882E+000	-3.499526537485340E+001	-3.497316586222857E+001	-9.622737317404047E-001	-9.622737317404047E-001	-1.239664635198882E+000	-3.497316586222857E+001	
1.368000000000000E+009	-3.423023349258725E+001	-1.269290178661829E+000	-3.430214968786175E+001	-3.423023349258725E+001	-9.963404393904722E-001	-9.963404393904722E-001	-1.269290178661829E+000	-3.423023349258725E+001	
1.380000000000000E+009	-3.323541018880309E+001	-1.312679141273596E+000	-3.327273076461712E+001	-3.323541018880309E+001	-1.022185547660830E+000	-1.022185547660830E+000	-1.312679141273596E+000	-3.323541018880309E+001	
1.392000000000000E+009	-3.298261698767757E+001	-1.334142817738053E+000	-3.300430408614945E+001	-3.298261698767757E+001	-1.072564247900211E+000	-1.072564247900211E+000	-1.334142817738053E+000	-3.298261698767757E+001	
1.404000000000000E+009	-3.245842753222141E+001	-1.353831041744128E+000	-3.246434885898628E+001	-3.245842753222141E+001	-1.141414286525651E+000	-1.141414286525651E+000	-1.353831041744128E+000	-3.245842753222141E+001	
1.416000000000000E+009	-3.187885650659003E+001	-1.370161094190661E+000	-3.190377196151732E+001	-3.187885650659003E+001	-1.195515851353545E+000	-1.195515851353545E+000	-1.370161094190661E+000	-3.187885650659003E+001	
1.428000000000000E+009	-3.121969253419867E+001	-1.399225670903528E+000	-3.120948484349088E+001	-3.121969253419867E+001	-1.266137290747246E+000	-1.266137290747246E+000	-1.399225670903528E+000	-3.121969253419867E+001	
1.440000000000000E+009	-3.046041290368672E+001	-1.448907902514053E+000	-3.049841203829416E+001	-3.046041290368672E+001	-1.314169963413328E+000	-1.314169963413328E+000	-1.448907902514053E+000	-3.046041290368672E+001	
1.452000000000000E+009	-2.975108667691045E+001	-1.509754676376832E+000	-2.976362366379020E+001	-2.975108667691045E+001	-1.393261192372264E+000	-1.393261192372264E+000	-1.509754676376832E+000	-2.975108667691045E+001	
1.464000000000000E+009	-2.925642779125515E+001	-1.552340448201789E+000	-2.926991306172656E+001	-2.925642779125515E+001	-1.473654363848221E+000	-1.473654363848221E+000	-1.552340448201789E+000	-2.925642779125515E+001	
1.476000000000000E+009	-2.886225484763764E+001	-1.595515004090366E+000	-2.887139084058984E+001	-2.886225484763764E+001	-1.543922067350076E+000	-1.543922067350076E+000	-1.595515004090366E+000	-2.886225484763764E+001	
1.488000000000000E+009	-2.822764076642499E+001	-1.636884474257677E+000	-2.825460274456566E+001	-2.822764076642499E+001	-1.646687513411338E+000	-1.646687513411338E+000	-1.636884474257677E+000	-2.822764076642499E+001	
1.500000000000000E+009	-2.758144940067985E+001	-1.705974158704638E+000	-2.760817889444591E+001	-2.758144940067985E+001	-1.746790125266336E+000	-1.746790125266336E+000	-1.705974158704638E+000	-2.758144940067985E+001	
1.512000000000000E+009	-2.689981799221827E+001	-1.782000553577802E+000	-2.691822762076404E+001	-2.689981799221827E+001	-1.857914405991046E+000	-1.857914405991046E+000	-1.782000553577802E+000	-2.689981799221827E+001	
1.524000000000000E+009	-2.599403691942559E+001	-1.867758410880575E+000	-2.602397454168834E+001	-2.599403691942559E+001	-1.989000565721866E+000	-1.989000565721866E+000	-1.867758410880575E+000	-2.599403691942559E+001	
1.536000000000000E+009	-2.525613692935229E+001	-1.972660197725178E+000	-2.526295739005050E+001	-2.525613692935229E+001	-2.088841069065712E+000	-2.088841069065712E+000	-1.972660197725178E+000	-2.525613692935229E+001	
1.548000000000000E+009	-2.463451065700707E+001	-2.061641347082946E+000	-2.465097063557049E+001	-2.463451065700707E+001	-2.168065279677080E+000	-2.168065279677080E+000	-2.061641347082946E+000	-2.463451065700707E+001	
1.560000000000000E+009	-2.401565145788857E+001	-2.143375352620694E+000	-2.403321259011579E+001	-2.401565145788857E+001	-2.268026969098026E+000	-2.268026969098026E+000	-2.143375352620694E+000	-2.401565145788857E+001	
1.572000000000000E+009	-2.352251206651465E+001	-2.242568596742424E+000	-2.352037987625570E+001	-2.352251206651465E+001	-2.408435838537134E+000	-2.408435838537134E+000	-2.242568596742424E+000	-2.352251206651465E+001	
1.584000000000000E+009	-2.268708528478581E+001	-2.340453853527708E+000	-2.269029627486508E+001	-2.268708528478581E+001	-2.483386789978255E+000	-2.483386789978255E+000	-2.340453853527708E+000	-2.268708528478581E+001	
1.596000000000000E+009	-2.190468623117549E+001	-2.492852248055459E+000	-2.191316696081893E+001	-2.190468623117549E+001	-2.596091487692190E+000	-2.596091487692190E+000	-2.492852248055459E+000	-2.190468623117549E+001	
1.608000000000000E+009	-2.110929426767178E+001	-2.664383966107208E+000	-2.112726644071225E+001	-2.110929426767178E+001	-2.672827771109216E+000	-2.672827771109216E+000	-2.664383966107208E+000	-2.110929426767178E+001	
1.620000000000000E+009	-2.049608966440895E+001	-2.850988657787525E+000	-2.053916976570106E+001	-2.049608966440895E+001	-2.768555340512206E+000	-2.768555340512206E+000	-2.850988657787525E+000	-2.049608966440895E+001	
1.632000000000000E+009	-2.010170331562348E+001	-3.068107081134234E+000	-2.013723096566155E+001	-2.010170331562348E+001	-2.842801966280310E+000	-2.842801966280310E+000	-3.068107081134234E+000	-2.010170331562348E+001	
1.644000000000000E+009	-1.972516004238896E+001	-3.280391930893184E+000	-1.973860648462807E+001	-1.972516004238896E+001	-2.867222779959515E+000	-2.867222779959515E+000	-3.280391930893184E+000	-1.972516004238896E+001	
1.656000000000000E+009	-1.939772516736820E+001	-3.539825296196687E+000	-1.937933530750579E+001	-1.939772516736820E+001	-2.895112937644038E+000	-2.895112937644038E+000	-3.539825296196687E+000	-1.939772516736820E+001	
1.668000000000000E+009	-1.905688561571509E+001	-3.873366856912997E+000	-1.901231784864725E+001	-1.905688561571509E+001	-2.970331692459256E+000	-2.970331692459256E+000	-3.873366856912997E+000	-1.905688561571509E+001	
1.680000000000000E+009	-1.881763129272668E+001	-4.382500426881137E+000	-1.876834281183535E+001	-1.881763129272668E+001	-2.929710784783153E+000	-2.929710784783153E+000	-4.382500426881137E+000	-1.881763129272668E+001	
